,MMM,AOS,ABT,ABBV,ACN,ADBE,AMD,AES,AFL,A,APD,AKAM,ALB,ARE,ALGN,ALLE,LNT,ALL,GOOGL,GOOG,MO,AMZN,AMCR,AEE,AAL,AEP,AXP,AIG,AMT,AWK,AMP,AME,AMGN,APH,ADI,ANSS,AON,APA,AAPL,AMAT,APTV,ACGL,ADM,AJG,AIZ,T,ATO,ADSK,ADP,AZO,AVB,AVY,AXON,BKR,BALL,BAC,BK,BBWI,BAX,BDX,BBY,BIO,TECH,BIIB,BLK,BX,BA,BKNG,BWA,BSX,BMY,AVGO,BR,BRO,BLDR,BG,BXP,CDNS,CPT,CPB,COF,CAH,KMX,CCL,CAT,CBOE,CBRE,CDW,CE,COR,CNC,CNP,CF,CHRW,CRL,SCHW,CHTR,CVX,CMG,CB,CHD,CI,CINF,CTAS,CSCO,C,CLX,CME,CMS,KO,CTSH,CL,CMCSA,CAG,COP,ED,STZ,COO,CPRT,GLW,CPAY,CSGP,COST,CTRA,CCI,CSX,CMI,CVS,DHR,DRI,DVA,DECK,DE,DAL,DVN,DXCM,FANG,DLR,DFS,DG,DLTR,D,DPZ,DOV,DHI,DTE,DUK,DD,EMN,ETN,EBAY,ECL,EIX,EW,EA,ELV,EMR,ENPH,ETR,EOG,EPAM,EQT,EFX,EQIX,EQR,ESS,EL,EG,EVRG,ES,EXC,EXPE,EXPD,EXR,XOM,FFIV,FDS,FICO,FAST,FRT,FDX,FIS,FITB,FSLR,FE,FI,FMC,F,FTNT,BEN,FCX,GRMN,IT,GE,GEN,GNRC,GD,GIS,GM,GPC,GILD,GPN,GL,GS,HAL,HIG,HAS,HCA,DOC,HSIC,HSY,HES,HLT,HOLX,HD,HON,HRL,HST,HPQ,HUBB,HUM,HBAN,HII,IBM,IEX,IDXX,ITW,INCY,PODD,INTC,ICE,IFF,IP,IPG,INTU,ISRG,IVZ,IQV,IRM,JBHT,JBL,JKHY,J,JNJ,JCI,JPM,JNPR,K,KEY,KMB,KIM,KMI,KKR,KLAC,KR,LHX,LH,LRCX,LVS,LDOS,LEN,LLY,LIN,LYV,LKQ,LMT,L,LOW,LULU,LYB,MTB,MRO,MPC,MKTX,MAR,MMC,MLM,MAS,MA,MTCH,MKC,MCD,MCK,MDT,MRK,META,MET,MTD,MGM,MCHP,MU,MSFT,MAA,MHK,MOH,TAP,MDLZ,MPWR,MNST,MCO,MS,MOS,MSI,MSCI,NDAQ,NTAP,NFLX,NEM,NWSA,NWS,NEE,NKE,NI,NDSN,NSC,NTRS,NOC,NCLH,NRG,NUE,NVDA,NVR,NXPI,ORLY,OXY,ODFL,OMC,ON,OKE,ORCL,PCAR,PKG,PANW,PARA,PH,PAYX,PNR,PEP,PFE,PCG,PM,PSX,PNW,PNC,POOL,PPG,PPL,PFG,PG,PGR,PLD,PRU,PEG,PTC,PSA,PHM,PWR,QCOM,DGX,RL,RJF,RTX,O,REG,REGN,RF,RSG,RMD,RVTY,ROK,ROL,ROP,ROST,RCL,SPGI,CRM,SBAC,SLB,STX,SRE,NOW,SHW,SPG,SWKS,SJM,SNA,SO,LUV,SWK,SBUX,STT,STLD,STE,SYK,SMCI,SNPS,SYY,TMUS,TROW,TTWO,TPR,TRGP,TGT,TEL,TDY,TFX,TER,TSLA,TXN,TXT,TMO,TJX,TSCO,TT,TDG,TRV,TRMB,TFC,TYL,TSN,USB,UDR,ULTA,UNP,UAL,UPS,URI,UNH,UHS,VLO,VTR,VRSN,VRSK,VZ,VRTX,VTRS,V,VMC,WRB,GWW,WAB,WBA,WMT,DIS,WBD,WM,WAT,WEC,WFC,WELL,WST,WDC,WY,WMB,WTW,WYNN,XEL,XYL,YUM,ZBRA,ZBH,ZTS
MMM,1.0,0.5235794832779862,0.4423446141507921,0.3234980120350842,0.5049229024627128,0.3390573454508895,0.2491389538578438,0.3648357734462791,0.4654858090714476,0.4477629787457875,0.4887879003085887,0.3160278402814053,0.3873151551267765,0.41937273581449,0.3638932721076635,0.527010946728343,0.364531215731094,0.448369345870475,0.3898819061797602,0.3901739713792412,0.3968556669254046,0.2823781586963293,0.3958141562295053,0.3537113596167722,0.3661768482129809,0.3146588634800212,0.4830712256223207,0.4629797184722402,0.3600072243625781,0.3336510772513992,0.5469895523247318,0.6069376516147703,0.389311765709435,0.5528759546689089,0.4468322498694289,0.3788165062376163,0.4146923929286107,0.322660370084101,0.3986725413123466,0.3981863534743072,0.4144486230487954,0.4123653864592642,0.407491721021232,0.4177539276329618,0.3902384644188204,0.3991518083916311,0.3827267661553484,0.375906076121207,0.5171318591683923,0.324521738004005,0.3679232664985583,0.5506300180949045,0.2221335500147121,0.3405670505349527,0.3975387760904688,0.5173753431841315,0.5029292203875471,0.3366251596264367,0.3936006129580822,0.3623831171888483,0.3732609208344222,0.306159350088641,0.3094699752447913,0.2212448592209348,0.5597124441486401,0.4475297660969944,0.3982181798673406,0.3651359514945282,0.4833823231229933,0.3962628252089811,0.2800953050728174,0.3859220758512677,0.4440089005756026,0.4179427314967209,0.3699236742797915,0.3040817297637743,0.4276711124021871,0.322227912376683,0.3740061993423643,0.2084498685458349,0.4927610408976161,0.3558452196693897,0.4021531288156891,0.3447135573171382,0.55763870039295,0.2320557150216499,0.5118922734713853,0.4429158549775612,0.5290405770839303,0.3371748900078009,0.3029019229829286,0.379591223593238,0.3206669494970565,0.3679489677464405,0.359395124208219,0.4574000347700755,0.3271495605758527,0.4166361452325017,0.1797958311001989,0.4506955262599832,0.2716490488733423,0.3542373896348114,0.4635203010040886,0.4661981438127647,0.4997475661615383,0.5154261241727858,0.2223578445639822,0.3251108175149575,0.3261271339756733,0.4520167575349785,0.4525234961672922,0.3773394019162766,0.4298310554405589,0.2652833009243595,0.3678137048390447,0.2987148491062292,0.3843271159831666,0.3930210823925965,0.4249553081633614,0.5643980708362747,0.4158866598521242,0.3229470008340903,0.3554384725281756,0.2613069171420455,0.3557420698713721,0.4956973654048757,0.5545203494498145,0.3589315477055355,0.4219693321078446,0.3606610702808522,0.316110452156888,0.2834588748960654,0.4828760577671731,0.3997955828679952,0.338765168519017,0.1797996160731643,0.2893502971471615,0.333060717415022,0.4628130511320271,0.2510770514943601,0.2622751431124416,0.3496706950349869,0.2365670840828506,0.5747595070140664,0.398702313425077,0.3820465200707643,0.3569623160006087,0.5334854601752586,0.5670789196741772,0.5932473208392696,0.3531129929849082,0.5465831217300484,0.343064177632678,0.3518350955918207,0.2386589789126205,0.3406355386294433,0.5842053606413563,0.1764615762241239,0.3460837368815934,0.3477462475710752,0.2892947284585797,0.236588537660288,0.3877136737248572,0.3176049060051796,0.3639462938749598,0.3698147074818323,0.3914485456075224,0.3717242050588898,0.3618853380144693,0.3457584720415145,0.3702340546658264,0.3105225319863654,0.4992107608474995,0.312662547965758,0.4147410380610101,0.3924167625984806,0.4152080165138704,0.343735589844549,0.5002507810577761,0.3973904273088907,0.4889380193203793,0.4043169299403462,0.484858891174884,0.2584957724758305,0.3049989838387666,0.4552390542436502,0.3951989526690097,0.428387489723017,0.2396923110776167,0.5444643616468735,0.3871352628670407,0.4293108739220016,0.3857581931494241,0.4677104817194384,0.2417857813839477,0.3461171729033406,0.5262936022141558,0.2607787108845795,0.4457531286671415,0.512219088634329,0.3111422678204322,0.4424391247360449,0.3533829302520978,0.5351632814907061,0.3640582993676283,0.441451726599568,0.3805009413099766,0.3846799081513367,0.3365601666482868,0.4231143323608076,0.2882741925774504,0.3569797179554088,0.3783320742957762,0.329604505815958,0.4888142204363869,0.6346812432268845,0.2845443565636705,0.4160717613287715,0.4641517506454623,0.519762076804717,0.2772777811414152,0.4810699498917114,0.4460872956206597,0.5044795460220213,0.5688053966166019,0.331834736887496,0.6737948422309944,0.213815884534013,0.1863036659907442,0.4087328840436179,0.3812329482112065,0.450145006873723,0.5086122861825408,0.4891340807347318,0.4018083004815432,0.3718551074965658,0.5375367145620356,0.4182327367938812,0.4131949694660061,0.4602941645812443,0.4309299147951828,0.4006241265881857,0.4940164562588868,0.4619209445507397,0.4867007923868221,0.5285871902462291,0.3974412911007292,0.2979180848125698,0.4749809282350711,0.343084299161034,0.3896948235233776,0.3585621209625215,0.4315327146660968,0.3858770400719474,0.2132538372071502,0.387542748378635,0.3881267006341593,0.3881543866530969,0.3414314018873801,0.3567832148234779,0.4067110501299724,0.2664454966516343,0.5082622203897874,0.3566596552908782,0.4636635945019666,0.4172827839024177,0.5424666197883059,0.4459649471445981,0.267080508613893,0.505528475133142,0.4745130156301259,0.3039195933507783,0.3503319525870906,0.2271350426522966,0.4124983050734661,0.4674977142638842,0.4104655486336059,0.5123763336089853,0.467912272537286,0.2211268923188242,0.3462163033549868,0.4051764084051666,0.3073224768523506,0.4491684858034938,0.3130663373021533,0.2935095263446427,0.5362262242840556,0.4728843716417426,0.3969924310736876,0.4403169308234959,0.3625022095473446,0.4054796055998881,0.368240901927593,0.4584503685082522,0.236774334772245,0.3765831115531015,0.420138175119533,0.3802316944417025,0.3143071570363826,0.4709406713379979,0.5402395653389631,0.3374896883077619,0.4098066703951643,0.3755255644205919,0.4281357796430775,0.4233202442110162,0.2182920836247601,0.1204613418447107,0.4423124150755316,0.4349560306459163,0.3326842028681173,0.4134919945748965,0.3529030903498911,0.5327945225411679,0.5262766597177194,0.5317475965195555,0.3692105634872896,0.3365028042233913,0.3087785465279767,0.4684535386181855,0.3211816685833472,0.4064660764306361,0.3866433891095188,0.3201353747752575,0.3126211076804724,0.4347919367101153,0.4865938382333967,0.3861377638503045,0.3406230806710919,0.4088801164211085,0.5353767819828293,0.4766320936361537,0.1906054677591906,0.3645390940896321,0.5953830614395308,0.5357040801892707,0.5649605842493683,0.4215205233986075,0.3569103346285681,0.1468435828792841,0.399306747467914,0.4011862673195526,0.3564508873094083,0.5251866690478559,0.4183103337133557,0.5406482045456321,0.4033644118600108,0.5515752293462487,0.386267802692433,0.3538266929655215,0.4271759246968643,0.5600481873421402,0.3640631328957204,0.3697418983563051,0.3166914530617188,0.4076399267215304,0.4249306294270418,0.3508819583744456,0.3612600791084998,0.3947144584083001,0.5004159809397046,0.4598410365959083,0.3385979086151235,0.3913141857708432,0.2210061606171894,0.48099972039937,0.4150256530819557,0.313701118950537,0.4071759962175752,0.5451379213052474,0.3492241714728366,0.5476005059030866,0.3624851387033451,0.3611712634338652,0.4483897407332148,0.314767787280119,0.3359931092549361,0.3773802973261974,0.3535868319280743,0.3763304476643683,0.2660804191617726,0.4786201037740725,0.3847031158483256,0.3970024035728229,0.2860136074597107,0.5360271426964273,0.3442623386529512,0.3662984126223352,0.6064374038418258,0.3988736814035607,0.5143924655318965,0.431165800285319,0.4128942676851719,0.4651397433829055,0.2152680168458247,0.3382220694989749,0.3881114008618967,0.2918198723554398,0.5576599082910293,0.2359627756687745,0.437047943628324,0.2799909082083159,0.328948559927337,0.5303272582956525,0.4488150147447268,0.4081492692023903,0.3945935707226662,0.1957630711230576,0.4719360059618288,0.5152642970051561,0.411440212934058,0.4203686290028587,0.3456785945183504,0.5213100104279524,0.3767024203464937,0.4447688329300772,0.4210195241158445,0.4985769926867345,0.287155800095709,0.2993563767062767,0.5224554447218855,0.3778608299305045,0.3161709548777809,0.5141862442708512,0.3488556587782177,0.488087566964743,0.4943013094974396,0.3696197030932477,0.4000921583350117,0.3552132747803981,0.3066471762035139,0.3816679326682109,0.4049246467283602,0.3367407699966483,0.2595243269873903,0.3225706422550086,0.4720411752522838,0.4080091874120398,0.4399353342838076,0.4640399522158679,0.4736616257239601,0.3955068185499831,0.2841946512067723,0.4294219237822447,0.329098389386887,0.4062932905704733,0.4470174910458798,0.3362506484541433,0.5011320339640334,0.3040099709590689,0.2984436479747233,0.3854909481734763,0.4800672414740178,0.2989298266091756,0.3930572651074961,0.3244178844091814,0.3198843094706089,0.5798769009748715,0.3978365310897334,0.4092583148218541,0.4036081281449158,0.3832781266683398
AOS,0.5235794832779862,1.0,0.3864544351909446,0.2777411865072569,0.4702438263459612,0.371110912680301,0.2996002341511677,0.350773667605214,0.4395134410825441,0.4716385662680638,0.4601824378436842,0.3024966411789593,0.4203284193084309,0.3829750762191078,0.3726325774102448,0.5766339842531759,0.2647066179412991,0.4028614589644778,0.3946091951186126,0.3937293039804106,0.2714890300219869,0.3398020652406887,0.3116113341095194,0.2404201670581287,0.3521535937391206,0.2284999571797952,0.4380872713970958,0.4523679427147991,0.3373932617214003,0.2865836467635546,0.5389457947212343,0.5996329290941816,0.3416047421304382,0.5708483677707993,0.4701378709740006,0.4436462903935713,0.3797596135595459,0.2692495590002097,0.4020239660879395,0.4468852248420133,0.4899571125284138,0.3912022827708397,0.3642810243739994,0.4328961597511708,0.3892723245752618,0.3254216405197315,0.28150291260129,0.4110909465784504,0.4679324257602139,0.3451081737874835,0.3475371125205462,0.5274827947175615,0.2816632073117734,0.3116648046831803,0.3852608294489802,0.4914888239243218,0.498133822968199,0.3697462209770523,0.3266477181668388,0.3100276708704679,0.3892588921852234,0.335838031701186,0.3363943327698165,0.2249186625975824,0.5330578055265114,0.4833837771894239,0.4012171032861897,0.4085671457221144,0.5033179386043302,0.3731501354185736,0.2632546435184736,0.4158961057543061,0.4488684901691321,0.4572134241841299,0.4723909527079377,0.2877233014611286,0.3921436165683916,0.3784921264850195,0.3491101022596937,0.1477643015272986,0.4749067244839219,0.3201305950754545,0.4351111049452803,0.3298734309096016,0.5135136681185951,0.2329455616137435,0.5182497583014061,0.4549465568656213,0.5352992130781192,0.2906280724997461,0.281133175803126,0.32219850647801,0.3029605147196151,0.35305777596337,0.4046806647756452,0.4676988036947042,0.3111313315228803,0.347682737476806,0.2440761800256431,0.4063754835844894,0.2297048879178074,0.3120433186142906,0.4121188859759572,0.4741445406001947,0.4207591078036142,0.4838987103386034,0.1747600949428392,0.2813091655151944,0.2282420628106544,0.3490227633826661,0.4300148046128269,0.3067768839615044,0.3923329146536513,0.2186070680213543,0.3074076777303403,0.1907675320075013,0.3334016665158581,0.3832676366815338,0.4677833002850524,0.5181379215815123,0.4241582830490503,0.3866849437826903,0.3590088132249067,0.2489288062683632,0.3291809421984729,0.48342116303938,0.5168547558414124,0.3340517037373034,0.4206308929376021,0.3467242371262471,0.2959192963851204,0.3564814142573934,0.4847707784286968,0.4006450517053909,0.3074618480483131,0.2333168687118738,0.2766733156960958,0.296494001849875,0.4465215608482985,0.2692411033740862,0.2902296962545955,0.2292319551152873,0.2573568304418543,0.57514394710032,0.4734069843212141,0.2741912766144044,0.2319042922069698,0.4913652551962693,0.5502649386303758,0.5854599397341357,0.3537844093944116,0.4851021050526561,0.2505556069494898,0.3100135840360286,0.2480701769048196,0.3045791566500725,0.524365165357846,0.2205877050296316,0.2566170021778741,0.2834325429868841,0.3062477743170521,0.2455958206874818,0.4302782566457639,0.3210724708435292,0.334131794891397,0.3336449219848635,0.3966203028817276,0.3382609332911871,0.2622310800237417,0.2283141621958066,0.287984683363732,0.3458129040937928,0.4882564093152592,0.2974199094446813,0.347820913914478,0.4022883210138763,0.4011252560878315,0.3851098411868773,0.5045902576339982,0.3632188170863157,0.448050778790609,0.3532715989578694,0.4567157761250067,0.279263816024901,0.2327039383549928,0.4134003184472024,0.4039870875285395,0.4619869341850534,0.3152466925235023,0.5227891228306586,0.3763346038374665,0.4392606184270214,0.4198348532566533,0.4085627554369923,0.2307752293394031,0.3913494105794946,0.467091283780349,0.2148860451322035,0.4627134455008098,0.4898685431977655,0.2782049044966977,0.4297152267137306,0.3553058596458113,0.5184389240789368,0.3423008134611683,0.4185568231331241,0.3666112374476257,0.353487271687178,0.3125869939541744,0.4007625278795561,0.2146907648761005,0.3114025084022321,0.4224799056173686,0.3362260184860006,0.5170383631884663,0.554489489592697,0.1982679933679838,0.4116096611262302,0.4215915665003375,0.5465294032980451,0.2534957241252317,0.4656734285205106,0.4164796782540282,0.4173902449608506,0.5887642294460513,0.3484474719191496,0.6146208609143038,0.2205800798517344,0.2632689175820119,0.3824511100799008,0.3656033000101588,0.3988867577461043,0.4898126438203953,0.4654316335527769,0.4062429144256103,0.3580520745928156,0.526236164516676,0.4235766645757124,0.3430791756852237,0.4700125997851344,0.4728792139462859,0.3750883144353362,0.5129469953651252,0.3357292568784961,0.5307771484484801,0.4965065988723315,0.3642165211605861,0.2159629454189569,0.4528576949099304,0.2726928294125083,0.3684917144504293,0.3189405097325344,0.4812389860088589,0.4219516185437054,0.1948638299119489,0.3610597805347054,0.4030683225413183,0.4379378816893894,0.3885202772105626,0.3123969083740203,0.4654919290525292,0.2391349979981472,0.4960649850752406,0.3890450188216873,0.4550091740807969,0.3322835880899981,0.478859971747518,0.4917682459669683,0.3255485873910186,0.4764119733703029,0.4393212406452439,0.2846834091078205,0.3632256192558769,0.2654621775748247,0.4244873280337707,0.4480055021341595,0.4890346424430365,0.6098822440296932,0.4354818260909519,0.2823475033703864,0.2673970504755829,0.3165192466366616,0.2888636930334797,0.3716059312626249,0.2731517905813641,0.3227137111779695,0.5041693283125283,0.4707145299494455,0.417417577635956,0.487831502608315,0.4075728564309968,0.4038577150392157,0.3404923816545268,0.4972041872246804,0.2621120337885033,0.329674600935803,0.3716616208539209,0.4448966753276705,0.3329981361105267,0.4781936975549144,0.5213059246457254,0.3288058039090137,0.3872702871436305,0.3960450054721319,0.4079892834585563,0.4028207472908636,0.2663349174708198,0.089091162144179,0.4420011634685115,0.4381465360417999,0.2441946937057421,0.4094873721478259,0.2840622105979081,0.5283997810465063,0.4959447046450424,0.532498008009826,0.3095187313496182,0.3141310503662924,0.2699470929035273,0.4697299944720122,0.357482975442019,0.4273709411367094,0.4601594794904249,0.3593563372414344,0.2677909459682375,0.4975736426153456,0.4387381077399288,0.4526954736227492,0.3052834929374621,0.3976591615292992,0.5424291578688012,0.4732991640933422,0.2694499603902689,0.2937161378644933,0.5790087551230219,0.4886911686389547,0.604861995614155,0.3252841129549146,0.2755142540715248,0.1200109916632626,0.3113827584190587,0.3461853631936812,0.2476332262909725,0.4729767451273098,0.4731994820660548,0.5427029382448354,0.314659304747488,0.5333185367465171,0.2882259753353361,0.3428687911117905,0.4218614378718927,0.5200682554033466,0.2860708424280849,0.4065060037171236,0.2794324403989584,0.4768565167830557,0.4686478003745751,0.3597500905217916,0.3566836192201223,0.4236656983846892,0.5276913377131583,0.4309161133332179,0.2798942846244304,0.3667706351247076,0.2506697373614337,0.4621950902621538,0.3974283726786722,0.2845578741231851,0.4130887465607255,0.5484980809696073,0.376568647945001,0.4936296273704829,0.3876754753665712,0.3606319730041135,0.4481264998210385,0.3447477676342635,0.3383163338251719,0.3343267106276537,0.3558029386256109,0.2867117296685919,0.3375304000099371,0.4813281758732166,0.3737921966764764,0.4402014071948624,0.1961914166567595,0.5495902101628077,0.2348986355188068,0.4040695027794521,0.583809470509092,0.3909596270112641,0.507284368090783,0.4381871070561739,0.3756169852000061,0.4007560057337817,0.2696312618997788,0.4089651561214743,0.3391304561209309,0.3173810367851265,0.5536187811056598,0.2822594429994303,0.4373501795966664,0.2696369234266737,0.3297710520636859,0.5736159260130212,0.4507876223116256,0.3596239163687509,0.4343929370483707,0.2398947928846311,0.4989012810541428,0.5288007407733747,0.3879273273286743,0.4170491391141326,0.3701535986853856,0.5852248304775587,0.3968235573656746,0.3862301855702398,0.4504775257510475,0.4526926999617971,0.3375058143527871,0.2672374275096907,0.4673472983137874,0.3633729899483626,0.3209465517645671,0.4736488380942412,0.3454164518075871,0.4261521466688566,0.5199452456861503,0.3345609993080753,0.3787637939860804,0.3301032858238591,0.2767521721959308,0.386877170100441,0.3947647495995232,0.2829879562007816,0.2530239705786398,0.3187999671323101,0.4369944687714043,0.4790192238325095,0.3953222453547286,0.4833791190622417,0.4862571391833441,0.3460242267479603,0.2620304258463393,0.395836043787261,0.308403113929564,0.3683047670870279,0.4372486585140309,0.2150976795796622,0.4646603555936986,0.2750669166004277,0.3510315204269064,0.4002575816621036,0.4832181132823678,0.3039200616508099,0.3914961177523794,0.3734132049847221,0.2339644548700086,0.5871064910921253,0.3680015264818614,0.4390713618906988,0.3544112566329923,0.367798640226418
ABT,0.4423446141507921,0.3864544351909446,1.0,0.4461933980402892,0.5412710204624007,0.4639965293509734,0.3121746499677053,0.3205022101785061,0.3884963539036157,0.5803726940283337,0.4822464699193331,0.3913298983125414,0.3113484797538966,0.4444478851100751,0.4271642177442238,0.4499181413492097,0.3852322220695088,0.4027997174378688,0.4502785673330201,0.4443757695656409,0.3120367178579501,0.3635767635911616,0.2555309838694088,0.3910761100693697,0.2460394508710882,0.3618495371236254,0.4074922726205038,0.3534762568540767,0.4644240594385919,0.4278221917271105,0.5088721197822095,0.5320586232645264,0.5001847941563966,0.5030267907511715,0.4525339829137614,0.5179767367255428,0.4572238651147696,0.2008615238643354,0.4586904781997531,0.4081398470364594,0.3520333549134021,0.3808998196644366,0.3425950927058182,0.4969316023778223,0.3491101700118644,0.3413527230933655,0.3718803022249692,0.4438171343475077,0.5289653010479034,0.3256168996619392,0.3861005338305245,0.4787995696459288,0.2675192673437284,0.2264308047732357,0.4263754111162142,0.4252632271992447,0.4398662444209722,0.2680191576833642,0.5503538021229922,0.5746596533959537,0.304816138625903,0.4907700566314307,0.4743072917783834,0.347853842263865,0.5529361559380057,0.4540110102047633,0.3351481916538664,0.345006939009306,0.3385301862869266,0.5492364955606471,0.3933079756258821,0.4006775788865816,0.5064682146891922,0.4954822772513987,0.3002074741029201,0.243836889943065,0.3308968739588236,0.4736334129699886,0.3890525395014533,0.219361835848982,0.3758288033625461,0.3803199447074369,0.3246422541816077,0.2315967255525325,0.3558802783409993,0.2975227530492956,0.4322051838672782,0.4246656719844577,0.3832806305010826,0.4002311304376389,0.4045669001519016,0.3661464279505598,0.2189617240790348,0.2855597571264079,0.4974357388569318,0.3892056412797181,0.343771963759292,0.3228186999169405,0.2448797652639842,0.4064558338719389,0.3679591380542684,0.3824495017182703,0.4253159835475305,0.4724394942531535,0.4894655404231213,0.4113147419535068,0.2620324958267587,0.3894793925677339,0.3765043890306506,0.4304398422722439,0.4654853407777395,0.454345752035319,0.3953073869920963,0.2438880642634828,0.2540518039992019,0.3501356926493185,0.342089457044117,0.5163408668924518,0.4453971756913849,0.4826748424271341,0.4143134029890096,0.3819898424354579,0.4289646759070415,0.227375807104159,0.4354668191359507,0.4324552488039658,0.3834958582070835,0.3662016989722546,0.605661220332972,0.2816716791230637,0.3303766819820615,0.2756790202345687,0.3562061069810963,0.2876788548917062,0.2067905167344929,0.3798866777136407,0.1668571225224725,0.371724686309915,0.3735748669398859,0.2896309446604097,0.2285592626681722,0.3756271566259395,0.271452198141464,0.4459668293610926,0.3691602829786245,0.3402944572414713,0.3837547308364746,0.3933758971676236,0.3883481776995767,0.465182622547953,0.4145683830403373,0.4969267798860944,0.308216979266968,0.5176934085081901,0.3425259800389651,0.4398159704664544,0.4164012793707436,0.1859092752998423,0.3666009695588347,0.2087028186564129,0.3597380169539355,0.2149787100248196,0.4203408118004935,0.4561512395097537,0.3807370432921394,0.3729116882958191,0.3782640823286162,0.3288114517981367,0.3899376925514562,0.3987162473511515,0.3811810604147416,0.2550648208804087,0.4224707094034973,0.3345510017171204,0.2786013537308084,0.3694387487670995,0.4917633735051374,0.4235801490437261,0.4541647965311443,0.2814780695284279,0.3738420161201275,0.4267776651391223,0.3612768906769567,0.2312739811233044,0.3358830872043149,0.4975478556466465,0.3450557570319739,0.322297379773995,0.3664700127741341,0.4378805438189116,0.3030837582435973,0.4201845468513013,0.3814004744356604,0.3059078703649744,0.2516178897466741,0.367213723791578,0.4285160285511623,0.3133721916959097,0.331438595301199,0.3926886978069591,0.4178233997646315,0.468392396482445,0.3035094480652058,0.4310673425615662,0.2339229637904458,0.3314503411069779,0.3366505826237141,0.3832328655847328,0.3223973141488394,0.4214786442174408,0.3321099248973232,0.2397341037816346,0.3324403876961624,0.5548513866757169,0.4772587626166272,0.493407980211498,0.2831520521497636,0.2841004627221835,0.3716210167357798,0.4177572744013332,0.3508681345241755,0.3257729415118905,0.3504941499133961,0.4315196729540784,0.4885352025746647,0.5186844461484766,0.4973712742144064,0.3762012623862242,0.4025989920253171,0.4269364442336547,0.4690399324416432,0.3889973149784995,0.3945204213756705,0.3717951943888773,0.5231145431983791,0.5399535297924678,0.4526370922413602,0.5279459354083808,0.330017759712135,0.3868989951051329,0.3540397267699046,0.4668898688210985,0.4248953131638428,0.5489692045064036,0.3966988084378193,0.4406350869261421,0.3804915280441353,0.3013621776070532,0.3292860671396403,0.3867886455455822,0.2552293119408449,0.2751631355571146,0.430444567680378,0.4075759368412435,0.1855716352055905,0.3719189011865273,0.490057352310535,0.400897384690245,0.2628907245637886,0.3503117358521609,0.3632958145377335,0.4178377873055329,0.4926007078723295,0.2825834563003743,0.345000923979033,0.3784283365943479,0.4214559459730284,0.4337139976475209,0.3014163422946363,0.3234350482850384,0.347659219019592,0.1924387135173851,0.2783494004191192,0.3708212672377641,0.3080657212407939,0.5313246211995073,0.3428601930692111,0.4541640321247749,0.5209700056218303,0.2912385513854085,0.3960909008205529,0.4179170157037212,0.3809345501951967,0.5623877605626234,0.4784818055429409,0.3274315452897571,0.4377303196402704,0.5602348280669167,0.316301457160199,0.4143081496561469,0.3466829416873369,0.523815916675491,0.3981068931592431,0.331813018623115,0.3702879569150272,0.2738242695843708,0.4670408460997561,0.4155106544789063,0.3710879442207389,0.5589759859023405,0.4679289623042236,0.212730181143131,0.4443554801506302,0.4997140389963774,0.530184675942964,0.3594431457625266,0.2568337765913181,0.1286569851882854,0.3859926516974539,0.3758995862816007,0.3908704983335802,0.4084042963082324,0.3685739833329607,0.4514135133514709,0.4483883429248251,0.4333360244680637,0.3536203080345755,0.224802918132726,0.2890201479023996,0.3222808882111153,0.3770817638864625,0.3394080304316237,0.3488398745507199,0.3404989945696255,0.2101671628123789,0.4014599752759856,0.3438359186935135,0.3392361259786392,0.2387335861342076,0.4097683057408109,0.4131928090301378,0.3929136086266755,0.311674026763155,0.2539751635470728,0.4215722856889384,0.5488854746883313,0.4424631912709377,0.4760522691282854,0.4405613778909911,0.1621130513827413,0.3592782343536994,0.2626101962796458,0.336239240778731,0.418019874236202,0.4282828314355045,0.4477308993734528,0.3776111180526421,0.437328368896038,0.4642366554110526,0.4049440692954401,0.4969791313331377,0.4483423758050269,0.3492481817443933,0.4187939749782893,0.358901278405985,0.3539091934218006,0.332243971939948,0.3785915522365203,0.4402554987665364,0.2778829440823981,0.458587320323564,0.3750795190861777,0.3117190684076195,0.287039019798666,0.4109302186416806,0.3472513470780833,0.4661559312407742,0.4647188863398347,0.5338187272747781,0.4136597569670024,0.4272581277802092,0.5160815008381979,0.3339801565109922,0.255019137515471,0.5406271371547212,0.4202511063937751,0.4261246832863288,0.2158636636250499,0.3330000730634527,0.3603046214129263,0.4513901968846286,0.4706432654470539,0.2281387889206549,0.4194918737228904,0.2771335790181299,0.4002845427870279,0.3756600650392603,0.2941930941481613,0.4486265679923475,0.4232416721846381,0.425474281983482,0.2752731187970669,0.5468518079955385,0.5795943730377069,0.2004438439161797,0.4820131238567304,0.2839925301406494,0.3558138692825946,0.507792585809859,0.3516384041232622,0.335418552195884,0.1898158302165488,0.3050745719215589,0.4536873742020325,0.4045190857057186,0.5165770076029971,0.4030672772549202,0.2491988812645835,0.4711911893786352,0.369164410369395,0.6522757206510014,0.3855305420274443,0.3413267754908362,0.4416209553514737,0.3087970071318012,0.3822128735211609,0.3889181807934878,0.363918301087669,0.4130888121640031,0.1963380496519806,0.3888465324879791,0.3723190005966231,0.27372817756951,0.4136364620505,0.221358985347591,0.4215659855593226,0.374971220185168,0.4817503949190248,0.3745151757642302,0.2492544564497145,0.2135984201355479,0.4979822788856098,0.5018570680409434,0.3486827997365544,0.4045723744875371,0.331956195332616,0.5336969916683098,0.3322636180042588,0.4260494642771769,0.3895243182038402,0.3270853795629238,0.335715116785335,0.3315343858961027,0.3654398969463867,0.2367146275287414,0.4457176654261106,0.5032169911469929,0.3863259227131314,0.3783554707355281,0.2316034993683569,0.4888723694789422,0.3209401588232171,0.4395776450613389,0.2378826154467236,0.4343416716322234,0.244365804741996,0.3896962123374146,0.4778706230331661,0.4061922934231718,0.3882214905227592,0.4753106667535616,0.540575210794738
ABBV,0.3234980120350842,0.2777411865072569,0.4461933980402892,1.0,0.3512143876644437,0.2959274993827521,0.1789549649941905,0.2414750977206025,0.3303781058292434,0.376581191759448,0.3190171885537134,0.2244442057134388,0.1818105136238832,0.3014002363216739,0.2856882897263043,0.3072743819883931,0.2524862812425277,0.3143962506968691,0.3231193195241366,0.3199273809092701,0.2425934111876191,0.2224589355003329,0.1828771166192166,0.2501469175852518,0.1807285909015509,0.2266086404270219,0.3270508139086736,0.3235419400179343,0.2658830592192986,0.2511314208746671,0.3876225893388378,0.3849238168102029,0.4971813991290438,0.3635607010627229,0.2980929371799529,0.310415280742378,0.3286845233638638,0.2250924137356404,0.2785000095140489,0.2951545906873786,0.267941466578759,0.2835454732685755,0.2738248785937935,0.3829695095310131,0.2745420126963246,0.2715618481583299,0.2624111528293112,0.2929362521091898,0.3651669989335272,0.2666942048555061,0.2763263087512566,0.3187477549157592,0.1787906166002831,0.2295995238325615,0.2309553290114664,0.3266251242669908,0.3399509439381272,0.2157375152263115,0.3364354938521245,0.3850464385686894,0.2206324445642391,0.2923005556920067,0.2966450887673612,0.309222135552081,0.3799392340887109,0.2980374874587096,0.2531457640825404,0.2661798805440648,0.2704268262793819,0.3855592214945482,0.4245712984690458,0.2915659140433196,0.2989742668188904,0.3358477734845417,0.2285008593279866,0.2080917252254233,0.260476975712169,0.2764127420519326,0.2813280456164407,0.1520117932508974,0.2999350053062946,0.3593983878749592,0.2370049551022134,0.2043594249356799,0.2959115545397882,0.2113830265580072,0.3155471816779831,0.2918828032458568,0.3002609084393093,0.3822789524299382,0.3269510048462811,0.2617912852951767,0.2286030618506434,0.207030767997568,0.3427718523748816,0.2944189105160747,0.2621551117570815,0.3228145479678742,0.1578275774019541,0.3421959730545325,0.2536356535890239,0.3786248569084749,0.3116036110468554,0.3418882898069065,0.3561054271804506,0.3400849912136008,0.1553845536497023,0.3111840230903576,0.2333902958144263,0.3103396951588851,0.2907477453930074,0.2926093155363265,0.3132985934763581,0.1619054766432255,0.2818381288545631,0.2078177176220374,0.2772442834639405,0.3405786614330179,0.2955524773643972,0.3359269423741138,0.2820584496142113,0.2693985332456501,0.2495658730297698,0.2004813422494935,0.2523410339811724,0.3248717542563637,0.2835143862230483,0.3533691273913787,0.3591004073670333,0.2611131529208628,0.2603805478535698,0.201915040057951,0.2786357346668027,0.241330325886611,0.2399937856897586,0.2177601096223397,0.2229560019222783,0.2117019505029641,0.2971616684097963,0.2276308702691564,0.2178946329652435,0.2379861558099722,0.1901247756565988,0.3063683037513667,0.2672378485689418,0.2766407471390909,0.2541399545333167,0.312069102345537,0.3202628988854646,0.349418283157271,0.235258175835185,0.3332998204431241,0.2252328854018951,0.3271002561873927,0.2569731977274321,0.3976614699095664,0.331532711481519,0.1183541610790524,0.2545714391946074,0.2303569776534801,0.2139788396013562,0.1745947079457135,0.2298046958287129,0.2585788329474802,0.2814108536664382,0.2790827986930603,0.2372507340739618,0.2825585208359628,0.2486012402478468,0.2377751564956074,0.2703127730490616,0.2031628418903261,0.2673829388828359,0.2116844315111075,0.2923651535969748,0.2547530346042169,0.3211215781987261,0.3148202689558146,0.2890385584838317,0.2473943915859172,0.2834578469244235,0.3120263081958825,0.3058333265690249,0.1655845897834426,0.2267652045956171,0.3567368816015239,0.2933270860103901,0.2360505237435734,0.2245087749859514,0.2827902280935999,0.2485224110761765,0.2719176386241395,0.2774606265038685,0.2465381099754208,0.1650427168448873,0.1879748375947384,0.340282258431682,0.2269396996971187,0.2445889042368529,0.3056543248646112,0.3836781998409285,0.3215111642256075,0.2441566390332186,0.3295292420269727,0.2480315223615623,0.30057318313481,0.1964397651708376,0.3269514998141613,0.2551243958620071,0.3304016889989855,0.2378157742619185,0.2451570471860843,0.2723180011026211,0.3529062977385385,0.3495125760598845,0.3638842791492346,0.1802862049192342,0.2494784220126547,0.2814269080961001,0.3163879744696415,0.3399702033371042,0.282387064657369,0.3101845479157498,0.3295315872952739,0.3632013061332552,0.2907068311415522,0.3536931866396004,0.3221072531903097,0.2308275382673422,0.3064388970063975,0.3140472346094304,0.2434600309464577,0.3065120176720111,0.2923978476806568,0.3222473528117196,0.3234035853520899,0.3002677186540038,0.3714578943189031,0.2353929375920543,0.2621787462030423,0.2647658350756383,0.3181967620730196,0.3185878248996537,0.4338051777588982,0.3043382342737891,0.3588661565047765,0.2678590412134481,0.2137690819407964,0.2853782437348508,0.2780302339902994,0.2420419744044802,0.2994841789116235,0.293357987391009,0.2525765094823235,0.1371068160286134,0.2858849888199237,0.3686353996147914,0.2772600521938035,0.2377522423927527,0.2855427272604819,0.2628423153342308,0.4055669214515956,0.3460236254076073,0.239180089464251,0.2723632983840235,0.3116421231360302,0.3352636994437143,0.308061839775864,0.2194131330229525,0.2963071979892215,0.2573258995868502,0.2190366416921979,0.2984777537360482,0.2018846956657522,0.2647411386091283,0.3911595909333764,0.2516645819291126,0.2987099164552419,0.3677927467347996,0.146035003204725,0.2630741197346052,0.2922239782005197,0.3824225281654907,0.4065386037264052,0.4319928183187741,0.213803553960536,0.3518903767639047,0.3373179943210321,0.2714444684581777,0.2843241379803953,0.2541742186220663,0.3484871509908554,0.294439723714201,0.2332496408942005,0.2988243536997776,0.2393025892631755,0.3215594223682964,0.2610159543628682,0.2623127194581461,0.351997581259474,0.3437980022750347,0.2072534792144549,0.300595713571094,0.3206855478280673,0.2974132713415473,0.2449565764693576,0.1951293050742267,0.064898298703886,0.2508175845665991,0.2492250228568818,0.2394458596669789,0.263920805902024,0.2603602714095748,0.3159770131877726,0.3177422959395208,0.3282468897399033,0.2679993845578295,0.1738404875712548,0.2394264411745258,0.2653937742159299,0.2278769751642732,0.2357068921551053,0.2351877673292134,0.2796273637216736,0.220582281854612,0.2565847561098266,0.281992652265742,0.2412710326640288,0.2824276351557419,0.2965446917316321,0.3310142971961117,0.2919495880986231,0.2132021518210315,0.179658567671141,0.3338562710861304,0.3765793424280974,0.2868286328025921,0.3360569788023154,0.4291857946604275,0.1249913292864396,0.297689031467897,0.2990429335195993,0.2582110924324044,0.3218248507557322,0.2354383453868555,0.3294991803335061,0.2633891212606422,0.3429939423999932,0.3089468151549869,0.3201362106681656,0.3063741404064461,0.3505502301650551,0.2573139233303776,0.2816079747017829,0.2379557288333313,0.2712270293164903,0.2627775604131242,0.2486620442371829,0.3441376815173507,0.2321268711740127,0.339959255846373,0.3254368662159176,0.2648720466021627,0.2479913832666151,0.3671434770929088,0.2984300955046876,0.3557599691749131,0.2950949281020097,0.3206761930441374,0.2891981524795546,0.2474773335329509,0.3741935633776924,0.2877425004326758,0.2132773423545111,0.3370919720261351,0.2777218704409142,0.2381093444172505,0.2528547713241225,0.2178646945834133,0.2634040661327283,0.2767250311133968,0.3342628854529128,0.2416268298945618,0.2881862804346589,0.1882757491922791,0.259436706149409,0.2405344399033987,0.2106579553949383,0.2999946799551294,0.2822673420933805,0.3290040935665245,0.2578467563653521,0.3551682041661818,0.3983866377659773,0.1647720914578522,0.2841460399746592,0.2705168351371634,0.2904474106775097,0.328381689261275,0.1994549388362669,0.2406741157967825,0.2559221509195516,0.2259362575004038,0.3381200308726033,0.3309211510902917,0.3506189697291934,0.2613594623295869,0.1707642719726538,0.3109542680849482,0.3187050531235611,0.3887428163156497,0.2954867543357545,0.2775767402124363,0.3243338462219817,0.2569874567499637,0.3145266232458357,0.278132519697544,0.3023949243336173,0.2464082988829365,0.2069753163994858,0.316343501980632,0.2929747205060197,0.2300540470337256,0.3196691137056835,0.2073586983739552,0.2971309492881045,0.2803106313896529,0.4181143967870969,0.3390036900332815,0.2984873311733734,0.2188866151003095,0.3001956399682713,0.3057259226981155,0.2666776944984474,0.3710262572060129,0.3081998280639899,0.3756168941588778,0.2493016966743437,0.3251742872814777,0.2485822272406267,0.2968869078195551,0.2758655135233028,0.231858954655479,0.2454329541378766,0.1566878593511011,0.352217761348065,0.327913054190982,0.2298812960757139,0.3203155695044141,0.2377617787233534,0.292055765677795,0.2402092865193862,0.2997910388447608,0.281797005244759,0.296848458498232,0.2293707332073652,0.2417045490182175,0.3130540015425083,0.2813281804643511,0.249140391658055,0.360479818209758,0.3893597343857216
ACN,0.5049229024627128,0.4702438263459612,0.5412710204624007,0.3512143876644437,1.0,0.5831821246605566,0.3681356542061897,0.4457301123623669,0.4803209273816824,0.5678460847844987,0.5230101887300075,0.4108634924861328,0.4054564035042786,0.4848989801567074,0.4354338835505381,0.5605450256678365,0.3790582440959846,0.4549285272794764,0.5701920603645081,0.5678619473346141,0.3288215236792251,0.4728967359120088,0.3631058927989183,0.3725546651120885,0.3493973863074965,0.3405202700834088,0.5379883264633064,0.4984549717562568,0.4992849230112953,0.4015197465528602,0.6256980198418225,0.6163799038469349,0.4046940185652541,0.6470873460160005,0.5533446215291117,0.6165877671688216,0.5470098045569896,0.3258489268968835,0.5482325253783467,0.5310860159527873,0.5078978590735909,0.4741192320329004,0.4113216420452856,0.5736344754186715,0.4415213955653788,0.3818917158453672,0.3824133521716823,0.5603358231707031,0.6426227817079315,0.3906104591491948,0.4598227462715542,0.5379342033457096,0.3535473985673477,0.3439356039276814,0.4398378191537264,0.5237177956641892,0.512467506402887,0.3378636987945023,0.4052071899050262,0.4270956506271261,0.3787417169421547,0.4290150824590214,0.4505637208556491,0.2685820506865704,0.6496341414538588,0.5565514649964236,0.4509380666699393,0.465791225646557,0.4260156562149858,0.5075562873481979,0.3396661118931582,0.516848740447201,0.6094242209823679,0.5720890830623688,0.4006844347694324,0.318125403308666,0.4372563265661611,0.5806635747126377,0.4630191652083382,0.1859878215505359,0.5243468854792613,0.3540956689716866,0.4248903254214373,0.4137169493636663,0.4731481680322317,0.3514163278350352,0.5653536256580194,0.5785975031236272,0.5147949493091386,0.3812812080496176,0.3586991205697007,0.4085425536055543,0.3220487650713083,0.344480654183028,0.5151167708271991,0.4571782373380665,0.36759510951741,0.4370668578187273,0.3698853684386645,0.4912405611982831,0.32937034624326,0.366713122788923,0.4942993154660183,0.5869359394188867,0.576793708582238,0.5425228030551285,0.2219397933171294,0.4468803109796548,0.3492995014038801,0.4726702041367073,0.640409895450566,0.438863667455636,0.4798090706752384,0.2665666827500617,0.3620397454697843,0.2836190426579648,0.4538092762659055,0.4932139490351357,0.5423130816273836,0.5505313737054525,0.5147150605205034,0.4970299116868549,0.4798035022964049,0.2223538292280334,0.4511427165074854,0.5127984759901267,0.4640676465769506,0.3686194063072958,0.5580136010472322,0.4549676649974878,0.3044137039871112,0.3742484585689292,0.4474440277132059,0.4027445289509018,0.3544665110557593,0.3271853420480523,0.3149788273443411,0.4147519283890839,0.5024597534917795,0.2876206327063459,0.3099073102847922,0.3484223376023064,0.2974326235862207,0.5639658723929982,0.4599610809636816,0.4172135037655295,0.3589278525012394,0.499938840240169,0.5010676702947487,0.5724511173649842,0.4016042916390715,0.6155915620947898,0.3326654515453274,0.4454729422857807,0.3489557022925148,0.4063851255784631,0.542889552243476,0.2674434412264731,0.391096932578832,0.3337663925095957,0.4836932514110983,0.1830209392103617,0.5276070643792867,0.4710303285996569,0.4595794386104303,0.4551393018966885,0.4803867903486875,0.4184440137399626,0.3925254704444603,0.3631782548843787,0.4087963816745238,0.3966300556812913,0.4870307421508426,0.397223295013333,0.3898911295202778,0.5025333343636492,0.5771555545628704,0.5586643104530976,0.5042504085556128,0.4299174827286144,0.4700471937362182,0.5383371513119775,0.5001221562418038,0.3312980908383086,0.3339247791038246,0.6139194502911156,0.4437877906985777,0.432399358528894,0.4719336166816674,0.5261886885398145,0.3822663830110708,0.4861383392231628,0.5782134406937822,0.4003554313926772,0.2719444577200292,0.4225127605049443,0.5002269001270249,0.2509802596457715,0.468343801254797,0.505098667823585,0.3293160716198192,0.5709251667768869,0.37780035123056,0.5407799425914952,0.3794224364627033,0.4776928810016569,0.3884124438059717,0.4244867588814496,0.4060142171312944,0.4237269326233744,0.3515816147143197,0.3644570138180074,0.4543224050709682,0.4392146477371494,0.5793797737097527,0.6068752558159894,0.2801347020646094,0.4320468250901219,0.507945905475763,0.5134899075395266,0.3368226436403226,0.4654103062850903,0.3830157945723317,0.550308665690649,0.5917021200556672,0.4834670720404971,0.5969116074601626,0.2858239612326315,0.3276127662820096,0.4880125438573144,0.5153456204189223,0.4497221733782898,0.4558917560585245,0.5101223578090058,0.6434140901658936,0.5484035916464862,0.5262802958082343,0.5717743620899087,0.41435639114585,0.4501845643465825,0.4776472284938429,0.5232240184940609,0.4986994489138324,0.4509603168791306,0.5059735981967955,0.5490276545437438,0.4227716539536476,0.2570954925508129,0.4639424899556537,0.3503758710378223,0.4152942613296048,0.3708391031543236,0.5306182306491936,0.5200281660570171,0.1578862613322041,0.402450330903474,0.4855279867803431,0.5260781945685633,0.385083636347644,0.4215028444577788,0.4563178239063555,0.3325760332747437,0.5985017498980592,0.4342986498429745,0.4817856493467495,0.3933636370121618,0.559826377210987,0.5106708732477371,0.4022755218076928,0.4553867927657049,0.4407675130164656,0.3151759617273275,0.380673762527081,0.3643404324455319,0.4601905781706332,0.6167683828957824,0.460553345199453,0.5153286000577859,0.6435264184500483,0.3681971420109041,0.3774166104387783,0.4932032821457023,0.3533466172294791,0.5088911384970508,0.3706700788910022,0.4660083811532655,0.5274182471212435,0.56774823475581,0.4726802711297795,0.5545976412442313,0.4120343497172737,0.6476741240635999,0.468047824532718,0.4283985904843914,0.312190527921487,0.326003395136846,0.4883141519538472,0.5510662943031162,0.4304298223531746,0.6431773332870282,0.5618959017369769,0.3377507372716113,0.557796088065607,0.6003625477053988,0.5639635925893467,0.4721718557565135,0.3559405880253511,0.1303463241424465,0.4886844535362639,0.4916736541087769,0.4134318246419028,0.4908990011395067,0.3744014678287824,0.5545805906483975,0.5277057415606401,0.5231537440292027,0.3712514039660615,0.3870924582206828,0.3276989407798268,0.4753609011395238,0.4831951667375406,0.4367116418750781,0.5146091462104591,0.4037796145908059,0.3222908400757887,0.4872251092159607,0.4788475106058634,0.4828055150490032,0.3930498480779312,0.52132307917547,0.4852110485104145,0.4520364729710332,0.3634445220010061,0.325249923683247,0.572896460140699,0.6449333235045316,0.5433176244556369,0.4949455203603777,0.376623950144388,0.2035759811586199,0.3981801058849335,0.3915521450230889,0.3651634986466807,0.540099803944152,0.4841803066445352,0.5616283358578329,0.4044451849468318,0.5487610377903546,0.4447426117116378,0.4096818707347674,0.535633738250319,0.539634031867999,0.3850739642650932,0.512220159830887,0.4105944902769084,0.4580257213325576,0.4297590279122344,0.4722807154790843,0.4254424868405813,0.3979627230368261,0.5412583292571973,0.4945481207624873,0.4109599944358091,0.431184651838273,0.3056906450645225,0.484802291529945,0.5353931963138558,0.4270065057852641,0.5010000248987633,0.5364122939940411,0.4247997331781611,0.6054232493132236,0.4500348166163341,0.4085707443408153,0.6317822196445975,0.5304026127471806,0.4472756416895544,0.3700481118392525,0.4024525819378359,0.4007869967203171,0.5160166647554336,0.519755639719326,0.4101894979203072,0.499707053900774,0.2130439322610659,0.5056816207440559,0.362667363984626,0.3890848675884971,0.5427701520331908,0.5241136511868102,0.5107608095244612,0.4411449616211841,0.5177551109323822,0.5877316064745122,0.2949241808919329,0.5859003852032705,0.4437215327586508,0.390631074948899,0.6131976951629263,0.3560007478382285,0.4076576948018902,0.3280261474857847,0.3558896125807821,0.6095034837581254,0.5299046343360381,0.4681741841186594,0.5047165729982809,0.3309305305199179,0.5880441711497426,0.5319909280717451,0.5469261533669503,0.4860657176933243,0.4249255498404329,0.5336722804257436,0.4955369962691713,0.4716627387990523,0.528130474080622,0.5063079625874856,0.5024085379353024,0.3042832138641755,0.5116007168912218,0.4627117824213707,0.3734206652238671,0.5220091153409294,0.3615597145425833,0.4734579673087277,0.467604632760098,0.447809299966513,0.4264249689523438,0.361980955960753,0.3608594331456344,0.563154036315906,0.569798462597626,0.3317443935315322,0.3356005767318562,0.3271616618157816,0.6410860585147203,0.4347661037042221,0.4838066177343198,0.4427243183458169,0.4612642015622558,0.3551478456208791,0.3323702070922992,0.5054768461885377,0.29697966860278,0.4996451193714492,0.4986602673811748,0.3335312069310139,0.4923117129670867,0.4062608896674832,0.465798163984876,0.4369149664926673,0.5349960362863193,0.32472637608845,0.5164554300830431,0.3600592823258869,0.3620423920633775,0.5659017443867798,0.4703448604802396,0.4641461610084469,0.4732186218044991,0.5362733978545755
ADBE,0.3390573454508895,0.371110912680301,0.4639965293509734,0.2959274993827521,0.5831821246605566,1.0,0.4310217791745354,0.3251218998485499,0.312608390408858,0.5067924163848093,0.4031720936133806,0.4129006187940328,0.3284510817901587,0.3726302228457288,0.424896006850093,0.4270139795313803,0.2234645289272857,0.2784642600113611,0.61417607299394,0.6108034731947839,0.1843036668225794,0.5755371825365903,0.2418585003276583,0.2537279423518011,0.256140456734151,0.2189783101903046,0.3798687525279162,0.3135387773121855,0.4028225952236151,0.3049911419590712,0.4538448545049335,0.4615014169438979,0.361790624266015,0.5306397176031538,0.5482560677786749,0.6612877695215063,0.3987349977232658,0.2108861204612027,0.565691963540569,0.5456259870693995,0.3961124695657848,0.2984468184014683,0.2617224865391706,0.4397326160181441,0.2827254527726531,0.1989205419556368,0.2235999643754478,0.6360399813105044,0.5071465619463328,0.2807475677200647,0.3019881509876335,0.3653475534003716,0.3510543598858774,0.2059795347198625,0.3283059214879913,0.3492547058138989,0.3369667659384111,0.2460691753295218,0.3262082515348894,0.3495051254963993,0.3173079388044786,0.4084155409647281,0.4509981334568383,0.2940317048833274,0.5137937316053491,0.4893316821295582,0.3428208776658275,0.4151218242814402,0.305449782612987,0.4200289455935071,0.2332098419819039,0.5271690450844861,0.4936578684682801,0.4243402718748618,0.3218849286337916,0.2091791086744526,0.2751459382757838,0.6516004309472069,0.3182129436755809,0.1056462129371185,0.345123947536902,0.2375779267058751,0.3300780312501541,0.3031053958376888,0.3097687001470988,0.2677733465340278,0.3905652879177669,0.4826376240551304,0.3683415914704093,0.2393524560372437,0.3091329333091772,0.2903592018474393,0.2099435391084972,0.2823846049768733,0.4717917785616834,0.3351050194872315,0.3494586391289517,0.2633676651062407,0.367357879582137,0.3012357247924288,0.2385122290883413,0.2872294487385717,0.2881364080726365,0.4800601768835966,0.4923073185740754,0.3712591468026291,0.1719504254381583,0.306454286998595,0.215348902657043,0.3139390241768354,0.468349997002251,0.307952278105212,0.3883812697135305,0.1407435241206733,0.2481556523532575,0.1446046423891437,0.3049155537555006,0.4427348293778954,0.5062549196129994,0.4259927506753969,0.4282866602905564,0.4869307195744586,0.4554962366858681,0.1629221684188483,0.3706652023019602,0.3878437333351692,0.2825696286916522,0.2229518827317292,0.5102458746494595,0.3101325586139679,0.2294872659297913,0.349666985057648,0.3018556621120387,0.2981973161721893,0.2457575251307593,0.3830267850351656,0.2159408903628039,0.3775851979868474,0.35391790890926,0.2444778273798332,0.247287213613323,0.1969394310772535,0.320007391405699,0.3854511655634823,0.3869286896114769,0.2387156298352395,0.2149149283733437,0.3350565899393465,0.3411256430462949,0.3930156588984344,0.3869538202441982,0.4260011971354712,0.2080159755195028,0.4073641832256088,0.4155208407808162,0.3138682761175044,0.349415153372016,0.2758053023765939,0.2539450241183705,0.2327635083341344,0.4450516766626052,0.1414891181282817,0.4339265885205433,0.454545983919532,0.2999106035260893,0.3172818538954098,0.4007725384004344,0.2442287351872112,0.2339948348282048,0.2162551102259052,0.290993035477762,0.3430452113222929,0.4083316426714385,0.27812736919617,0.2214941584813827,0.45793928037263,0.4658399785881524,0.5584326175553826,0.4101785977818477,0.2489519196222983,0.4127510440292076,0.456172373152636,0.3081219162977975,0.3028767726299619,0.2624301282525984,0.5064472623506704,0.3405886348756238,0.2850854929756788,0.5343313750693136,0.355327874895059,0.2782106191279462,0.4044146733618876,0.4561193661798438,0.2880995005542851,0.2772684698213264,0.3928692572998546,0.3368446365565867,0.1396581818305274,0.3050599178153009,0.2998286286404103,0.2883697341430856,0.4999588808720809,0.2393948891930626,0.3977503882944851,0.2471123214011622,0.2876328508604478,0.3331197325636678,0.3073972672221499,0.2878625006247808,0.2887192824315622,0.2344990353406731,0.235436706172366,0.3803217833501505,0.4059398647776492,0.4914489321582742,0.4217735263491995,0.1648242996308782,0.3101985146844861,0.376068356141285,0.3664439540123815,0.2565295246630134,0.2654298213799022,0.2428687188248126,0.3641520569760671,0.4384083740060679,0.5052550773012826,0.4171635662977144,0.3120486948638505,0.3517870033307926,0.472837798828468,0.4321560716621718,0.3407410255304265,0.3059892090683477,0.3410417170563969,0.6758795661694323,0.5163680427166835,0.3771216853548771,0.5012710361012679,0.3035075647868454,0.3568537790513371,0.4245500877846108,0.4340594871073731,0.3476304987026913,0.3073691821410643,0.3425339537024114,0.35940748550456,0.3461112781642448,0.1246254415021097,0.289856072260138,0.2307218831509616,0.243968606105004,0.2501600386653953,0.4701749702520988,0.5364828233340697,0.1464819875864825,0.3077437927096444,0.3801673877397656,0.5377826892841091,0.3362359772469609,0.3037259294043242,0.3634536887191366,0.2829182487103371,0.4367441278933557,0.3827916233502993,0.3118072796611986,0.2904732736971334,0.335631515210346,0.4452937012200359,0.4151940447156237,0.2836831188807404,0.2292980472425601,0.2162159886709953,0.283688712204484,0.3494258757618302,0.3506195400648073,0.4755475356033758,0.3412816597619293,0.4038742636366079,0.5723163581401632,0.4051585715044135,0.2672414429289478,0.3603709891134585,0.2373628919267129,0.3812536597818199,0.2605772308495047,0.537942685328117,0.3379940201793859,0.4812305384530349,0.3892649386259497,0.5365056974011203,0.4462118240319353,0.7015954111547801,0.336619727176643,0.2999159568230068,0.2895286626207487,0.180636471059762,0.3592112609425768,0.5788051211501946,0.3887584704901881,0.5648189387289818,0.4049648251005375,0.2139632032486386,0.43645428020007,0.5850537258586523,0.4520564805818913,0.3882031997173512,0.4590692853784298,0.0862603707560199,0.3728526229694988,0.3698572510052106,0.3045957945481571,0.4273337941584977,0.250600619292662,0.4450014639228951,0.3579479005683684,0.3728269648191034,0.2712053298883324,0.2753244945390291,0.2557054215514459,0.3062625484332663,0.5733644152065429,0.3475366326822089,0.465715988572227,0.3232775848239654,0.2149169480692605,0.4380606994021995,0.2940728666169225,0.4695797489035583,0.2690548529676468,0.4821977077964023,0.3496428981784949,0.299446769932214,0.4511981035197013,0.2297278663149161,0.4037964401988786,0.4936443030110454,0.4008575801774771,0.3804172810775365,0.2683370277301012,0.1627140419751907,0.2662115053526775,0.2534990523440674,0.2221885776048109,0.3393560727569686,0.4481398431234187,0.3806883034861096,0.233375538403558,0.3387438719042663,0.3075304935672197,0.3137288367184878,0.4326254911952032,0.3478993486537457,0.2255297086897389,0.5437583028300634,0.2971001060261697,0.357234620992586,0.3181242419076218,0.4891954451602229,0.3229902191805627,0.2909226840942263,0.3888607410606413,0.3349623371904803,0.2824130579088501,0.2651689080327513,0.3361710764289668,0.2967358553966708,0.3602420924150878,0.3971014577160198,0.4711410265312024,0.4148597180606712,0.3801272334923636,0.490185565588201,0.3418356362781036,0.3115473283320312,0.550911460660141,0.6660999272342518,0.3834968168154554,0.20173968737745,0.3460979162805906,0.2619808641002014,0.662404611638704,0.4204481859772821,0.2572794485171777,0.4963571523227043,0.1020366426087523,0.333062801099879,0.2210595705360757,0.2795068157190261,0.3944877086754028,0.4553996078284291,0.3757257035688466,0.278171465401526,0.4054328879058786,0.46329519718419,0.2653529487549593,0.6742753101666618,0.2885784443076268,0.3911792198088225,0.5089474009100275,0.4458212607652281,0.3036270765251216,0.2411723170866549,0.2817402590701799,0.4844125515227664,0.4278037813209263,0.3977817702329667,0.514048327211182,0.3941299300079138,0.5551355982584407,0.3697156082039126,0.5002491150547007,0.3677767214373768,0.361619345994871,0.4023622264370554,0.3907357441739041,0.291346876269436,0.4605307421268228,0.2987166017530547,0.5656122526261895,0.2102641305952005,0.3057893536795822,0.3090732325786802,0.294291491305035,0.3665877652141032,0.250615347617633,0.3981670961403349,0.3589142836991577,0.35993079977056,0.2980614929778281,0.2446656139698735,0.2535159742859769,0.5674914644500285,0.4993328115037497,0.1774862644046773,0.350865243994975,0.2304709169988854,0.5811509941242866,0.3379605013964455,0.289829686554376,0.318323095155939,0.3209756718655724,0.2426994501879417,0.2746699790528871,0.392261881685703,0.2002785361730777,0.3298183556550723,0.4153425909673875,0.1916705443315339,0.3032486431515922,0.2773499679798871,0.4428651868390391,0.3906757732215634,0.4031292896188545,0.2461014024889263,0.3765917680639714,0.3107514237736257,0.2516517444064984,0.4222363509827926,0.3783508383321393,0.4162444572176855,0.3452208644682265,0.4668384135992395
AMD,0.2491389538578438,0.2996002341511677,0.3121746499677053,0.1789549649941905,0.3681356542061897,0.4310217791745354,1.0,0.2280147053763705,0.2203992156012809,0.3616415150012495,0.2852815478948887,0.2630543760835958,0.3192624217501806,0.2566857018910775,0.3518330205510808,0.3020373699722155,0.1109727869252418,0.1954643242045461,0.3832348588807176,0.3813668689899367,0.108852741849037,0.4019395920476555,0.1680896909921508,0.1265929302167301,0.2204105443247739,0.1111129343675165,0.2919380595664685,0.2407308224077763,0.2400959663483597,0.162027382274022,0.3515518415539956,0.345135835785533,0.2066397429115476,0.4198553351923954,0.4840210230075794,0.4479553153242172,0.2555630491991843,0.1992789848413828,0.4118333246550263,0.5038053689419487,0.3431228793482045,0.222789259689245,0.2435941339509411,0.285666663487693,0.2028483007135615,0.1622797109738681,0.1286538260283047,0.4252898967298083,0.3193763958757375,0.1882737253666077,0.1891430969588102,0.2994270861118457,0.2556358055293986,0.1903642583736916,0.2623096893123948,0.2903238953501327,0.2793355039604451,0.2073176096756518,0.222959780350747,0.2309614253905992,0.2697802231384557,0.3045248251139846,0.3051954191113548,0.1852620500857311,0.3727324910178434,0.3686756037197305,0.2652470702636448,0.3118870417726344,0.3165607420709658,0.2816515514046105,0.1475552956893137,0.4367182972863864,0.3304258763685524,0.2967696632830407,0.2867067446716427,0.1668962866871569,0.2012221244943481,0.4701843414991948,0.2065150015968441,0.0637332968186889,0.2822400835167818,0.1854459263946855,0.2781007928338781,0.265578159709086,0.2803623370434303,0.138040577582766,0.3147984719324085,0.3822602133261418,0.3309775497017074,0.1727359973148575,0.2144657668921473,0.1678915993734185,0.1985834385119598,0.2050034107704891,0.3441346712031671,0.279764228203689,0.230686152637859,0.2301327221990205,0.2828075777404786,0.1893464986638773,0.1264347854550594,0.2073047142829815,0.2017500442149966,0.3338104368792104,0.3436927043872,0.3035368260076505,0.1076556514534032,0.1868315636999964,0.0984444176947768,0.1772520963497737,0.3089319964476978,0.1770772116374743,0.2635590295465467,0.1030228601057528,0.2291275601402027,0.0518490677835167,0.2034140462949806,0.3014924360364615,0.3746447056598951,0.3453690841413163,0.3236435457052488,0.351229380886375,0.2825526873824027,0.1560802014862042,0.2240781016991581,0.3022745665905391,0.2641148980894249,0.1881768815296795,0.3445066937755471,0.2287642766364547,0.1767098779429911,0.2711360444754241,0.2655291776666449,0.2330815644172984,0.2358036320177439,0.2629107474441284,0.1912984907859873,0.254155652052317,0.2720980632139095,0.1531464376826961,0.1608178893782202,0.0894567291226485,0.2072157657481809,0.3181616379796826,0.3034449535724589,0.1214827507857915,0.1073987304121149,0.2867201148326565,0.3060573156244592,0.3344399610257162,0.2959679332582894,0.3243223572140003,0.1352929514955534,0.3089543958989338,0.272959316800113,0.2216787981389162,0.3086408313246211,0.2514153635284339,0.1345129357885531,0.2060939700297115,0.3236492010462589,0.1646898360537444,0.3187322786020424,0.2986442480990459,0.190393809989667,0.1849362341530362,0.2934852352940493,0.1981015437535155,0.1138872673269908,0.111150271357121,0.1779989906280773,0.2593928144161892,0.3166354734507907,0.165761955402945,0.1906191906084682,0.3529645606400927,0.3019740486800274,0.3724672146358749,0.3014909501899195,0.1626528217179582,0.3146759622445427,0.2655545561478187,0.2500977882718939,0.2513363462635025,0.1377275477395905,0.3069466482163367,0.2777465603645889,0.267755385866564,0.3529791302358683,0.3089119816184045,0.2955635278101093,0.3149850823426421,0.2999630733575925,0.2406771500859774,0.2079088838034479,0.3222821654306481,0.2167944233013851,0.0710011883806858,0.281976761290438,0.2328939431369393,0.1665180906540427,0.3113976166326901,0.1676338781683121,0.3165168607794103,0.2230674528387903,0.2033122896880737,0.2490301038896648,0.2293824060422377,0.191311868137145,0.1938494095284489,0.1270842882423329,0.230686651583605,0.2938160370836396,0.2799248392965145,0.3410235532493704,0.3007138540643499,0.0874067200365307,0.2493841726823344,0.3484910018999617,0.3097068707650598,0.1429395467838159,0.2326356506434663,0.1619995251890793,0.2848546533584674,0.3098526974039011,0.338065036502421,0.3160820972513198,0.216868135950334,0.2918981611844772,0.3869369883174129,0.2781085789325436,0.2494792185713673,0.2304836136389361,0.2579650902232705,0.4203124259383517,0.3667633657910357,0.3009450649075778,0.3446874328271805,0.2320034763325502,0.2774475766470664,0.3455666753696134,0.2742942863190736,0.2955527267523758,0.1640921349409876,0.2875455138468321,0.2798678676196842,0.2968292055425939,0.0514065871168803,0.2472407617045784,0.1112825161270311,0.1597020301299724,0.2287315971432357,0.3889400508186371,0.4747409979948369,0.0755551794801994,0.184078203369735,0.2512949220803083,0.4967486951237005,0.2847051813799043,0.2330644783017781,0.2872789554594478,0.1681386491471408,0.3188896494614822,0.2876366836922914,0.2348809412257664,0.1615162053139894,0.242084689613555,0.2998817465962097,0.2877524097058955,0.2469122255164623,0.2031026074211356,0.2043921593251129,0.2242478408387315,0.2249260618558931,0.2797222066499372,0.3013298747136346,0.2588733683991301,0.3323177270564085,0.3846892979402381,0.2916808713545586,0.1411721817826154,0.226839223426301,0.1599410853410433,0.2440143375880208,0.151295294881985,0.3485890462397301,0.2631914111053495,0.3467927345750922,0.3119303565363681,0.5000028182945601,0.4674685668291278,0.4221331575023663,0.2049416016732645,0.2338501033769988,0.1897593477763865,0.1417576112315247,0.2437206168667987,0.5258611395164499,0.2233611511086413,0.3764387297725663,0.3320805090277349,0.2362076396722133,0.326616438120767,0.3912555949803813,0.2913435492676898,0.3349670452562148,0.3271716745535943,0.1065370595993763,0.2889837203054055,0.2827754060207368,0.1782741164018448,0.2939084689563089,0.1229902105875933,0.3537452472855351,0.3068310700134252,0.2891380317576697,0.1503858882584069,0.2542805876226362,0.2335804858631792,0.2658255354215705,0.5869015163135102,0.251025248012143,0.4176837192131868,0.2067678874257187,0.1813806897967426,0.3406529588495312,0.2312699549735503,0.4591163178125723,0.2322210958297617,0.3322878770669276,0.2874106480686573,0.2332530419671698,0.2975042706691667,0.1829947226005211,0.3309559110522355,0.320383226332098,0.3283258678769135,0.2058598179118105,0.1781959236769993,0.0837603594700691,0.1623084211998189,0.201950994063839,0.1140853224713368,0.2591690255430784,0.312565255543273,0.2958953427510855,0.1504545264333677,0.2887607843424759,0.1798727766624264,0.1926223553608587,0.3037329359928596,0.276188657460187,0.1189662440554967,0.3881552138941511,0.1592757267308965,0.2843502034692781,0.2863878198093443,0.4241738979012421,0.2220968024507116,0.2230728237527872,0.3211581799040002,0.2308504881677529,0.1642905189582959,0.1631047016503547,0.2161244512340344,0.2649859925199601,0.2307884846952278,0.2586644772798537,0.3390682760296259,0.3235959418640275,0.260406458474583,0.3320709697379395,0.2392093065700918,0.2754429713900305,0.37288059784542,0.3889998416701418,0.2446818552734351,0.1985238298643462,0.3216922301973223,0.1606002673850969,0.4073888019240428,0.3008656587973277,0.1734962091734629,0.420645482878118,0.0697641514528099,0.273571098660522,0.1064535538994621,0.2203714585172468,0.313050759988354,0.3051610642523098,0.3114859989911549,0.2653889472720248,0.3019727960656767,0.3221034143288719,0.2645993711642062,0.4864669509918887,0.1916943748156774,0.2780563186345156,0.3618235427592011,0.2998998081193581,0.2508911127960505,0.2197791391821736,0.229333163634569,0.403742886757248,0.3273864904922878,0.2608891596189689,0.475798957694302,0.3370778721297115,0.49073172952637,0.2869483406680749,0.3375096055269612,0.2359939084379869,0.2445304479433398,0.3250735430225073,0.2793131635452005,0.1912974751026565,0.3575961851871259,0.2383715783185083,0.3467242663013367,0.1388051930101439,0.232219160235637,0.1989877188361777,0.2212276984469347,0.2789300210071638,0.2055824431700056,0.3078809781649363,0.3366722549947615,0.2380562525376753,0.2027215942852902,0.2124123848014576,0.1603573359689909,0.3762282457321086,0.2993056128072591,0.1335678307299984,0.2386328475320137,0.2041336147659513,0.3693439415080979,0.2622450745259406,0.2004515306840462,0.2367461425722064,0.2613441484489338,0.1627408003513659,0.16023499217124,0.2833616885724156,0.2043503569595524,0.1995028745503099,0.285732382488254,0.0883458041646229,0.2393812420541971,0.174297938993117,0.323822977038445,0.361850177388023,0.3057548574094244,0.212318533090674,0.2669776687764901,0.277609136641267,0.114801337154088,0.316335126820284,0.2664959546932352,0.363997883215779,0.2573745817640238,0.3056244360992979
AES,0.3648357734462791,0.350773667605214,0.3205022101785061,0.2414750977206025,0.4457301123623669,0.3251218998485499,0.2280147053763705,1.0,0.4829421169314622,0.3904205777225306,0.4232988165493863,0.2050622017107808,0.372168239035939,0.4591781859950926,0.3483945535525953,0.4105024847862263,0.483493182757245,0.4172672688783365,0.3309305715827995,0.3272102978695205,0.2794515309006509,0.2409786390706619,0.377002917406696,0.4734046988236839,0.32325607467801,0.4503698000878028,0.4722364538451998,0.4589232975386553,0.4170853876604803,0.4441684131921182,0.4879837398258223,0.4504353786604583,0.2681148935923326,0.4999501991062426,0.4070985569529081,0.3867899994275884,0.3829107192854348,0.3774131756710611,0.3206746608149157,0.3687842534386487,0.4682166994196834,0.4173272786795303,0.4119163465839416,0.4458611739566577,0.4099789120597603,0.3343246992477063,0.4390893500288308,0.3488918714642086,0.4294786531229181,0.2758582562744075,0.4564701130047918,0.4114676416128373,0.2678893459610341,0.380912921660393,0.361523739109932,0.4305872891400433,0.4220988861768528,0.3292675568401644,0.2873739617322371,0.2988107574318361,0.3098719241216482,0.2653986297730956,0.3368125615576978,0.1937460303734596,0.4524098381406414,0.4393417262726283,0.4392746011195573,0.3750284039419533,0.362795729647782,0.3848190102142985,0.2593147420062941,0.3814334933147126,0.3427656727615742,0.4043455995133799,0.3658478830888078,0.3884192821434749,0.4979951454180538,0.3452130912093569,0.4599125736754502,0.1650688721963003,0.4676065936365937,0.2795728590512835,0.3826470390946372,0.4063759170341603,0.4006875363405327,0.2636212191210705,0.4682564070527443,0.4045214975371201,0.4963939724610339,0.2555409334512655,0.2847619030074944,0.5841894141937577,0.3401030592525427,0.2797370592496307,0.3725022734261635,0.3743959027963767,0.26847138203829,0.4621277548606717,0.2753290102000865,0.4453717464248592,0.2307921314480095,0.3229570899999086,0.3841427406556084,0.4769844017409014,0.3480314819185481,0.4761900346982882,0.1651026216164535,0.3319863507668011,0.4534393800705742,0.4127222096645371,0.4047245625413632,0.3348653113195631,0.3495204590859683,0.2416657373801958,0.4165505895064238,0.3642896611243771,0.3706142566785014,0.3995532331759626,0.3731049235660217,0.4140788671818721,0.3920677967699491,0.3467745617216956,0.2828909835652184,0.2423883393318367,0.4022061002997832,0.4122834120459315,0.3951356831990032,0.2977721219667223,0.3810685696502757,0.4142834009945584,0.2375592228784001,0.3390413066746723,0.4207248412141697,0.3964412434042785,0.3926415905567476,0.2366753115356235,0.3646159139847146,0.3283212801344505,0.4739093794872219,0.2238737197944136,0.2897284952748404,0.448682727719956,0.2176936828012642,0.497454158627635,0.4124776498260236,0.5944243029596964,0.4741808670232191,0.4389544760164131,0.4609993809329672,0.4484908696758308,0.2523010222628334,0.4480333699327499,0.461347444003797,0.3021381357694094,0.2127150153808685,0.3308180096279404,0.4890642399022703,0.2682780616633224,0.5395755517552316,0.3787926577932248,0.2815425681437549,0.2178402210486547,0.3778897037701922,0.3486102767356959,0.4492497156447344,0.4529377540833288,0.3669684808494007,0.3837117209281537,0.4419740310380212,0.4285811699651819,0.5608650090544011,0.3701257376944707,0.3182877495330817,0.3485747815223652,0.4260917165006972,0.3415556759098747,0.3698643024818602,0.4082983988295982,0.312387092918358,0.501973657391971,0.3925813866856221,0.382164058442593,0.481958307643212,0.32640478051861,0.458781174888633,0.4410181589543668,0.4315504608287099,0.4023865237057771,0.2920920136961817,0.4242674377493168,0.3949719961990664,0.3557276682444921,0.3911148779197196,0.3683681473583503,0.188706848562651,0.3486270978756579,0.4313062833665029,0.1959884782084865,0.4451047013074469,0.3880521640278415,0.2056890435486218,0.4016963322554304,0.3250657680665581,0.4613222578944562,0.4420018652236854,0.4634856044357143,0.3332903539210343,0.4224459744126224,0.5020871039597176,0.3475099084451105,0.3508552784350239,0.3845980951968806,0.4226384113112661,0.3562382660251187,0.4374610134577531,0.4898570354352806,0.1967156339191555,0.4689513003843212,0.421942566850455,0.4340987338122556,0.2603972301323502,0.4223096924748484,0.2983503240152784,0.3906477280545137,0.4588610433785383,0.2916175725863208,0.4352952850633859,0.1813324534989389,0.2683510512155844,0.3533263265991777,0.3781887523999795,0.3899294088578449,0.4560250021441135,0.4172521638848607,0.3783001092870924,0.3572205349668827,0.4719781711045137,0.4307634240446755,0.3877770721982125,0.3592524318969984,0.4070384303189449,0.2851543352303934,0.3641323717017541,0.2750491262327812,0.4271759486526623,0.4677918687637253,0.2965821877371181,0.1863096559663241,0.462024611854372,0.2704891477301254,0.4949619328049051,0.5090180937975197,0.4373207750862309,0.3550147522988665,0.0819401374313869,0.3504573862072426,0.4206549424764307,0.3601731627664396,0.3798312529369282,0.3088096403932423,0.4130887579456896,0.2136305880575862,0.4409188773321416,0.3942988285226929,0.395773365979723,0.2986812657581447,0.4911291798303522,0.3996953691384031,0.2865101042553687,0.4574541584654293,0.4029543039445027,0.3625319809675539,0.428360529917813,0.2195279059829542,0.4236423997359494,0.4386355061077595,0.4082433299851639,0.3781150114696091,0.3993801797500921,0.265527635783737,0.2915227486193265,0.4289732291263107,0.2625465237346737,0.4350442750610516,0.2883717285779942,0.2477409264946291,0.4431305000174658,0.378917406834359,0.4794155633943192,0.4402191708368271,0.3180193591256598,0.3674321393030906,0.4491342367780858,0.4148892592153255,0.2422152392489096,0.3268931749683882,0.3833312731064799,0.3695853576829644,0.2946164342644079,0.4571961192703794,0.4551955679293228,0.433430908743236,0.3845676505265966,0.4109748608521457,0.3734848912662381,0.3224893707337125,0.1767734628971717,0.2174158868037728,0.3942532746291329,0.4020698346858507,0.5176003018274142,0.3658616928538027,0.5019033593996011,0.4241327167312322,0.4327470368022817,0.4321285871746404,0.2684514633854311,0.3790126807233588,0.4873292717470593,0.3859604603235597,0.2746157744453436,0.3623488927076047,0.3999902415961565,0.2753733235069612,0.3819878183830411,0.3295710425145537,0.3910916359737014,0.4172615774791345,0.5183428361920324,0.3029052340721618,0.3773177508903634,0.3912212321662233,0.2508258503477248,0.3222194441970463,0.5030900105306683,0.4049740691118025,0.4344555696783468,0.3775040640270309,0.2505757656150327,0.2588221473062709,0.3669011522293872,0.4087369787711765,0.5237116627920658,0.4816767533884045,0.325704335480894,0.4612742112829732,0.5414897653132233,0.4810048572955152,0.3370596943104768,0.3002624697311618,0.4791684323711566,0.4640496368475028,0.5660773858708202,0.3636608565017086,0.3504322581069671,0.427227757067105,0.4189359190253365,0.3433513705347545,0.3301723977767947,0.3321752650579621,0.4269579625391096,0.4789090763534322,0.4739789633917352,0.496322870104282,0.1581031493781609,0.4642271125325715,0.425070844086773,0.2694068200426332,0.3585626440089665,0.4356757909341622,0.3008556190749497,0.4097884642075896,0.3901462999219666,0.4079023080224108,0.4535729221298998,0.3084491866614354,0.3773342940941243,0.417433051773506,0.2985123099576583,0.5254601976420652,0.2668531069080913,0.3801186868009927,0.4867782029580605,0.3512034921799075,0.1700872493839384,0.4096073405435232,0.4482130587633669,0.3455119425896835,0.4398756951202382,0.3987759267684411,0.4368234090492213,0.3855805617736705,0.3770818576493069,0.4376266549192265,0.21491521423578,0.3434715859428056,0.4391494145378595,0.3063489754494736,0.4327884073154619,0.2333816525376223,0.3690738315231318,0.4402991809351159,0.2740090615990418,0.4989107166879471,0.4705382425090642,0.3665003638137094,0.3641462448664611,0.2734706552221411,0.405218088510733,0.4526876237304114,0.3359854894516659,0.3783046152035568,0.2772163270952726,0.4222729853286419,0.4717656577702292,0.4606963187467381,0.4212309207007219,0.4675357844894275,0.3030817871772245,0.3602255689802039,0.4610890439970652,0.4581061165111275,0.3297939990343395,0.4338790878351659,0.3978005912176797,0.3431313343098324,0.4291999816507683,0.3245835773432644,0.4355179277901733,0.3759629687460362,0.4974495105291254,0.3304205304911261,0.3577882111576359,0.3186263504602167,0.1985939604070517,0.2964709037719017,0.4106585896448605,0.4136322135291713,0.4414647609488563,0.3215742622412797,0.4516821818165221,0.2879926397968594,0.2251168022200061,0.3944681431008762,0.3063566094955525,0.3954979770937901,0.3661197740333817,0.3649804245518516,0.4339209366343423,0.5087905297860977,0.2626904453458299,0.3621062172348462,0.5125803017593623,0.4094673758066906,0.3738396826729083,0.3802534178328632,0.4455344496778829,0.4497275378893937,0.3865182893792147,0.3596091135009903,0.4139097531236992,0.3505825716865224
AFL,0.4654858090714476,0.4395134410825441,0.3884963539036157,0.3303781058292434,0.4803209273816824,0.312608390408858,0.2203992156012809,0.4829421169314622,1.0,0.4102124601042045,0.4819914091735861,0.2188804215111539,0.3741040245724017,0.4142082339361556,0.3563033791269905,0.523417907869438,0.3799121499007991,0.622196942400796,0.345636298270452,0.3437508774759898,0.3918325561120357,0.2250975200726243,0.3994595786219486,0.384228190393527,0.4443764319590754,0.3257877728198829,0.6774866356774829,0.7388780881730911,0.3799828121162503,0.3560335983856917,0.7053715544198225,0.6146990250276513,0.344560322489486,0.5587637405668257,0.4484979511011303,0.3506222842135174,0.4959478322809149,0.4341052592715971,0.3553665917707387,0.4084115688441576,0.5190305645357632,0.6298953421811344,0.4653648401590159,0.5997726386794094,0.5967164788724313,0.4198728653546097,0.4070990706480788,0.340160437352163,0.5567699968786765,0.3954944055274834,0.52923891870688,0.5046710065891353,0.2603858857764509,0.4685365892499483,0.3106097757301204,0.6392813785119784,0.642088077109252,0.3990737956317317,0.315593264147844,0.3339536421941887,0.3413916845618266,0.2276836064830845,0.2896222307064549,0.200911391972827,0.5834283891293154,0.4673030667151231,0.5735770680349288,0.484394077050577,0.4713770965215182,0.4697444056290959,0.3223472876737899,0.3971158360212781,0.4202843810935809,0.5258123275806947,0.412124119679573,0.4428856718189984,0.5574538363544207,0.3241029413303365,0.4806381017503072,0.1620595494193682,0.6422061475319403,0.4199949617875106,0.4517324895749258,0.5100514375169508,0.5101975608595437,0.3870275577282672,0.571096670131798,0.4686773584312698,0.597724353652824,0.3748183427870051,0.3449130426575843,0.5507301659515356,0.4001674938162871,0.3000657995792867,0.3915142487619085,0.5660875961588554,0.3045437586972691,0.5850770953076175,0.2687020577483134,0.6552088231834899,0.2197149822301275,0.4600423500385667,0.5976577833450007,0.597305079310473,0.4264735741357872,0.6625352707471238,0.1298461999888745,0.5176125763489694,0.3595741589164731,0.5065003967781676,0.4763416347449105,0.3715988781473261,0.4462817232069231,0.2380275393542942,0.5136289458529886,0.299251685201258,0.4327302600291756,0.4065655821716811,0.4337924061347531,0.5127075635774934,0.5226868023597226,0.3292156328505873,0.3022180155206118,0.2897081648535952,0.3523976639141234,0.5095322359658849,0.5335437411616706,0.4137943840111524,0.3697739398846498,0.5488643937189973,0.3006635768939814,0.3444812348200585,0.5068089913046538,0.5453295919366593,0.4441292984747966,0.2071441673788545,0.444684052184197,0.2730182675111896,0.6592328043724854,0.2006157425892801,0.2934210272050909,0.3564489653638603,0.1681161643376391,0.607141268613235,0.4309762723039508,0.5255434151083792,0.4115908760192954,0.5276867843804746,0.5982219729923537,0.5911878970140063,0.299999825843501,0.5363116721270403,0.406011673339301,0.3264492253085757,0.1842739951463304,0.4689750583682139,0.6250307214926724,0.204853452055921,0.4545509698205931,0.4499291261038058,0.2653357880015407,0.2810620969302759,0.3811083116504907,0.2912365116725465,0.4953921593987597,0.4942561701308168,0.4062149935581905,0.549900443973411,0.4036209222538654,0.3277190088921158,0.4520846252236159,0.4543895979489503,0.4102757612424338,0.2927582582005775,0.5594898958491741,0.3673441257453696,0.4508587227588883,0.4187348591236939,0.3825606627827118,0.5704616692971036,0.4216961936675966,0.4784539165894419,0.6600590642144909,0.2573084580037612,0.3671450987502656,0.5604898446413327,0.4508296066041112,0.4955421869459953,0.2761796985717646,0.5354720797977387,0.4246983653667259,0.4099739462443829,0.4540805808768176,0.5219443871654267,0.1982753079980041,0.292955031851794,0.5977970416184972,0.2374973558089413,0.5278019109514308,0.5572838012322803,0.2453903411087573,0.510493295520984,0.5563710449367169,0.6319543975080386,0.54069038073455,0.6818316107578084,0.4076800755426313,0.4850691851738842,0.4509937246054646,0.4536829873468568,0.4049178910694265,0.4518036555900928,0.5140987082375073,0.3571292640103485,0.4752390132051464,0.6721363050890716,0.201505939357606,0.5603559862775543,0.4433111822966652,0.5486846313874069,0.3790690435967122,0.6220362066989388,0.4621920150683848,0.4877662047333505,0.5479961029154888,0.2801438566564437,0.6019554235951055,0.2073349189817389,0.2220225196204116,0.3617857758635506,0.4580779902671125,0.4040271908425268,0.5180124191753148,0.523393666577631,0.3966873732833507,0.396285754370033,0.5877931050203612,0.4827897299586776,0.4010078837430229,0.4382739096325598,0.4766848645139804,0.3602412582838927,0.4918292947717986,0.4055344665385523,0.5178541634878308,0.688445110124325,0.3553226461850047,0.2387061908955995,0.642132833495709,0.307356180377466,0.5621042424618011,0.5258718805907091,0.4982680422952239,0.3860216320979371,0.1045805682972118,0.4502167121878394,0.4709495601229961,0.4121252887468934,0.4229805577011135,0.4470650290512086,0.4527571572397977,0.2689693235384853,0.5337970840707031,0.4796578488461218,0.5592608067974606,0.4529694348897985,0.7101940526052248,0.4573646594258039,0.2845544626023434,0.5946123617631375,0.6350827032113914,0.3959340888606651,0.5728409807592862,0.2497487311112365,0.5470561154125458,0.6064734415613494,0.5088545489691342,0.4411182346508988,0.5522365014829802,0.2571969156565928,0.3017832441047841,0.5150968871610392,0.3736308023104089,0.5333261211574595,0.3528290750659492,0.2558062770622546,0.7313559521806251,0.3772461060248314,0.5492720341096835,0.4443649421512966,0.3526206528477106,0.3963133483555089,0.4933211163368097,0.4929031969637533,0.3057298857592682,0.4071283357591838,0.4435165991305665,0.3268586677853574,0.3181147042271946,0.5355475461447845,0.6426238422082837,0.4571615388154937,0.4357904782261521,0.4088291136328237,0.4744416513277706,0.3660624819947198,0.1507925041126985,0.1037459459791089,0.4485721613712456,0.4565667894859384,0.3478413878219696,0.4247876666331234,0.4290992485312112,0.4993767025792306,0.5088900781499386,0.6334910031754882,0.4031410453289338,0.4800209348885713,0.3476792547492716,0.5012528438494863,0.2754437171939063,0.4379286564955215,0.3999759279576757,0.406927572994786,0.4520636195525934,0.3940189500616281,0.5245651281697657,0.4390093937354415,0.5276432440139277,0.3738846395728485,0.5279896202057272,0.4558368416649618,0.2308635706177078,0.3619311479851563,0.6482331609291415,0.5262493674063599,0.5631893951357495,0.4390470940821426,0.353728839860511,0.2185174658239637,0.4500406086184144,0.5667034802228798,0.4585946113071918,0.6648600812401215,0.2764811281348709,0.5628543255123798,0.4874206360534307,0.7435305502227034,0.3598684212201145,0.4501888208273262,0.4365692549053581,0.7590248429433744,0.4428496944925874,0.359639880696436,0.3253771514258193,0.4698162219011368,0.4620216140001158,0.3428754932503768,0.3627149170396986,0.4079024346065555,0.6198338716079662,0.6284314818776076,0.5167842191054608,0.5721802013667976,0.1822609989269712,0.6490714398478415,0.5196667035604667,0.3001213174598277,0.3124425869140658,0.515704401137261,0.3052822404718694,0.5112795845899796,0.5118884873264808,0.5192433266374555,0.5181886822848972,0.2940241201481043,0.3029171563355393,0.528356587976009,0.3197918172411139,0.4716772123049323,0.2370917856145736,0.4266864570889526,0.6004019771934263,0.3681120901074981,0.2246182972097304,0.5490017776896402,0.3891659111203242,0.4551458764844184,0.5730969885152174,0.4864016563927908,0.6283103405929857,0.4895987020587761,0.4195670910807404,0.523400098970514,0.2565148833503153,0.3431950993518439,0.5843794306640923,0.3535879571184145,0.5329689899313216,0.169120921736822,0.4734189110829864,0.4620694227554263,0.2313857747311293,0.5788713859403121,0.5764489034244998,0.4421809014135232,0.3647561961579325,0.2496458662467506,0.4055226021447654,0.6023709457115546,0.3081573388617303,0.5293769405316952,0.2700669040734821,0.5526148744034441,0.5391600814962604,0.659654142096677,0.4237368419813685,0.6377126284101436,0.2606631904511043,0.3973137658955383,0.6491775212968756,0.5078111964128155,0.4336552794001929,0.522649944221315,0.5084472721542939,0.36495401682662,0.5032801768272386,0.4791202317180427,0.5400060481360592,0.5353995552013727,0.5149007227707324,0.3760606523868289,0.4188151121754095,0.3569199683701918,0.2298133938769414,0.3426908566266234,0.5476420978405188,0.5038371242452393,0.6388120626720042,0.4231893499743007,0.5369137334770202,0.3189816080643881,0.2508447246356245,0.4885596533219026,0.3483630780435531,0.474406676732556,0.3729926279031284,0.2822955343593027,0.6445973590467902,0.4958722919777016,0.2553016575732855,0.4128252518796351,0.5530422235337161,0.4149360106572823,0.4983837891206812,0.459763177795859,0.3585736549987268,0.5545658417198677,0.4788740799177844,0.336569051394033,0.4737911533621938,0.3787931603626394
A,0.4477629787457875,0.4716385662680638,0.5803726940283337,0.376581191759448,0.5678460847844987,0.5067924163848093,0.3616415150012495,0.3904205777225306,0.4102124601042045,1.0,0.507476912925104,0.3832181165397167,0.431253973084295,0.4459148912409465,0.4626957186844422,0.5090902699294747,0.3064125179882044,0.3872891006467907,0.4790944572811773,0.4769106596567006,0.2728281941879211,0.4135691315517349,0.2924494758419247,0.3029128425203192,0.326108461534245,0.2913640769494295,0.4422114819311285,0.4016735279648807,0.4376687632144005,0.3687505700715185,0.5452649198782041,0.5726006629653638,0.4403599383488473,0.6185411229980162,0.5382353064660969,0.5694857165973709,0.4473200127917499,0.2934472513517874,0.4784555156693499,0.506747071783888,0.4569120016549537,0.3814407130740017,0.3675798037218781,0.4931430887620769,0.3639409278947815,0.3078086337910576,0.3194312147484399,0.5461070402388497,0.5158221650579426,0.3077563668199561,0.3791094308005095,0.4946091897807218,0.3497818956084928,0.2897966612492827,0.4267451442698389,0.480692688232579,0.4646135923935645,0.2966602707186404,0.4687244970720735,0.4858601706557725,0.3536441287159904,0.5582275895027499,0.5859655698858562,0.3278632336896033,0.5910452271006051,0.5114047354685075,0.3764166621837533,0.4367405395867708,0.405774752168997,0.4944004665331914,0.3466724647763524,0.4728456380168339,0.5235574104076828,0.48103573718116,0.3756790525911725,0.3027099554633848,0.3686236339020356,0.5411972740153669,0.40171198492855,0.1569230709543249,0.4259252789305826,0.339366068065528,0.3922028817300312,0.340723577190854,0.4642618236601276,0.2872938173219592,0.4807271315916947,0.4881199642717343,0.4847681826080041,0.3280544974977918,0.3630800137128751,0.3742285873416039,0.2884631934834211,0.3324427096080956,0.5804901333090746,0.4616665712858301,0.3342025189134976,0.3684763007690506,0.2958409657071129,0.4022771812589355,0.2717830733594124,0.3678254618415549,0.3941692973974403,0.5140803215829476,0.47375335846349,0.4757413013395154,0.1922488162491262,0.3588207306865315,0.2755265125504829,0.3629239959047456,0.4828129148287922,0.3541235606789523,0.3934473164484568,0.2177319577821687,0.3246135747173025,0.2349529865580365,0.369444920054454,0.5093614438580445,0.4725557034935244,0.5214228703131519,0.471360502189968,0.4815140819547239,0.4056927397888503,0.2363668944492159,0.4010675346237142,0.4566182320740597,0.4567983503652061,0.328672735561086,0.6883538302288581,0.3117630764000859,0.3024896006376431,0.3549952822100586,0.4170862989515495,0.3684501059396682,0.3072800420697963,0.3603486379685097,0.2650526957874214,0.3523849346413302,0.3974973451010676,0.2988982663303828,0.2534402423253392,0.3256770151579523,0.2823435509534161,0.5324335144528121,0.4423060369673814,0.3068204404968699,0.29808581050171,0.4795591338690015,0.4828251051716488,0.521517007649157,0.4159050231290622,0.5028932398259959,0.281586634945273,0.4607853868756138,0.3266924180399225,0.4043709461164375,0.4960142428212863,0.2781980451304462,0.3050803255211595,0.2944529243005064,0.4099510563505452,0.2017300004602394,0.4726095862746109,0.4401167325691362,0.3661553003259253,0.3783197331936245,0.4201620117378839,0.3367583019852244,0.3161354750153177,0.3094563928586374,0.3401418366704764,0.3529385212810594,0.4509713578832453,0.3303663970247614,0.3324579170352214,0.4415513886570699,0.4864531625768263,0.4803352070214691,0.4561386534974117,0.3283025998488894,0.4142027778270624,0.4515115905754414,0.4315284036295986,0.3035688442699384,0.2847092217685625,0.4997115140391408,0.4104709934651738,0.3827681654996073,0.4170254925181643,0.4836612110168483,0.3866338293154163,0.4667585270917743,0.4638399245994719,0.3594683580051479,0.2607492492842259,0.4160210969845344,0.4437014214402889,0.2267435241785669,0.40901333907533,0.4131359703962323,0.3512491282994195,0.4959871056963014,0.3276069054422102,0.4978400378465654,0.3352603775675013,0.3555435559807651,0.3388661846875047,0.3988728795458682,0.3287699781738402,0.4246252534365242,0.2858251887401047,0.3234771854897961,0.4177349773318132,0.4812085520173856,0.5078740702200146,0.530393047939824,0.2582356685409996,0.3858205722748127,0.3977932876944514,0.482852468157931,0.3140109616021253,0.4241805507620715,0.3613527533638057,0.4222569618216626,0.5560201317947391,0.515701235637685,0.5470327871264827,0.3486057819990497,0.3878315540723744,0.4440566641425164,0.4705816551601027,0.4248840333262554,0.4442309864917297,0.4167881042770013,0.5603146328703072,0.535847172240326,0.4878817028464914,0.618094705091202,0.3511578510477915,0.4285078475324597,0.4516307015162246,0.4505217761755969,0.4531056577921315,0.4346422577782746,0.459924587999898,0.490100650818591,0.3774223666645921,0.2158134338452625,0.4126637878068017,0.2888904282890062,0.3235632783083323,0.3459968890104083,0.5154970095112885,0.4972144549868501,0.1508760135013039,0.3846879241635226,0.4737772304473127,0.491623463017795,0.3663465323779128,0.3704103044507769,0.4285584724724722,0.3330601607315333,0.5241297900837243,0.3725349421691674,0.3974668316211642,0.3431887077504602,0.446986702661866,0.4598082039088888,0.35765126726058,0.423578559137689,0.4097381736318596,0.2892189110662553,0.3662319676997351,0.3517926829664746,0.3991075537051572,0.52516181158778,0.403980659876348,0.502562346626928,0.5445959702527287,0.3555486519159831,0.3215335195791177,0.3741585126012248,0.3414561127866249,0.503201277266993,0.4001409193667979,0.3925798405075673,0.4782182940470409,0.7254065008446478,0.4195547583148833,0.5299991667440624,0.4403430828790057,0.5378357322096039,0.3809883280648418,0.3876010704674669,0.3429959054828507,0.2980145535496168,0.4001792980681085,0.5163779275811674,0.4080664856049011,0.5918408005330108,0.5228514160329003,0.3168848357465271,0.4638191496298045,0.5569982972446745,0.4970399076651318,0.4260024120434365,0.3155531308798883,0.1497217080401983,0.4375312178582428,0.4256618608292417,0.3462106711267183,0.4374313036206168,0.3162357361166174,0.5049321977757031,0.4723033249874121,0.5008687477425137,0.3255677631192145,0.3370480628745461,0.316587002251082,0.4126052745485233,0.4531457818057773,0.3603841324043194,0.4618897108713392,0.3266397805919681,0.2812194909101241,0.4629020197566277,0.3776332702147424,0.4621313904493895,0.3313515477184134,0.4664992677259036,0.4437956231465318,0.4398785016874895,0.3566769785344594,0.2669524283809523,0.512486150847063,0.5171626406828523,0.5099446752604797,0.3842613402222327,0.3989875130443396,0.1533779332130717,0.3427569962602718,0.3251057762063579,0.2856786324216147,0.47529035566528,0.4455741333306331,0.4992255184525493,0.3374661323976416,0.4787709389851633,0.3571147269841866,0.3589828682818383,0.4888788904946665,0.4886827868615935,0.3190739042519281,0.4922764575973068,0.3249750894347576,0.415682362448236,0.4279485543219782,0.4237158074673308,0.4095869107618183,0.3552144898382819,0.5171701369840779,0.4172297275903947,0.3040814845541268,0.3240495453230377,0.3531562895737198,0.4275112877094953,0.4417210048610783,0.4273139558053429,0.6851967134035465,0.519970726138602,0.411466744448398,0.5578390546967649,0.35597393395916,0.3627591642959732,0.5754876451894508,0.4966226361939886,0.4175165957538256,0.3095627210075311,0.3759970643960641,0.3551203321980325,0.4954388098099939,0.4674077130924641,0.2890215355324073,0.5058956880029079,0.1905789866976063,0.4525737701415994,0.2992422430906118,0.3627758865391115,0.4920585347805161,0.4363255590063769,0.4864011532881063,0.3755357697711746,0.518933000442274,0.5182364214346703,0.2607561810383396,0.5440420369844772,0.3338362938023843,0.3562056204892123,0.5614509343201052,0.3506762755709245,0.3888179471513882,0.2872514553853861,0.3230353825268846,0.5731656415181499,0.4749673650331196,0.4826216883957543,0.5054950692011778,0.3094607040830472,0.547626214983389,0.4660602194642115,0.7253184473200367,0.4024903669063401,0.3876599693405108,0.5190324391409199,0.3993441425499657,0.3651099485422879,0.4994134459131363,0.4322203677051767,0.4622105601402337,0.242190669247504,0.4532974230219176,0.3826544023675484,0.3128412341546248,0.4593030793465824,0.314464700033414,0.4319562739414094,0.4643544461451974,0.4173371030248854,0.3720110602076613,0.3115597732463929,0.2596062053757146,0.5184685074664905,0.4736989334248155,0.2875137967656649,0.3803305311551753,0.3339954348552803,0.5441226803358467,0.382466261800454,0.3967584972835241,0.3812635402720268,0.4255706660007383,0.3453490758178033,0.2988971441312001,0.4061954935321353,0.2661256203005279,0.4072800568194993,0.7095869312290779,0.2609306742333877,0.4290857575133017,0.2777911122435652,0.4945062920834049,0.4077089824566903,0.4737307829464892,0.3049778694652682,0.4300111233583354,0.3444899880329674,0.2823707562401579,0.5451451289554996,0.4086705337288474,0.4755163301013758,0.4444292973307194,0.5458735316972245
APD,0.4887879003085887,0.4601824378436842,0.4822464699193331,0.3190171885537134,0.5230101887300075,0.4031720936133806,0.2852815478948887,0.4232988165493863,0.4819914091735861,0.507476912925104,1.0,0.3343534004442484,0.4242521425719017,0.4317533266736503,0.3442068336341509,0.4909694266572531,0.4152051214212429,0.4333943159241185,0.4060904500854369,0.4026391330656557,0.3550665147315439,0.2956597373981111,0.3615202499997933,0.4171843789326976,0.337874391546128,0.3847233781407521,0.4796419888640515,0.4688085048539244,0.4310478064471521,0.4084773807300862,0.5817991001018881,0.5925270485221181,0.3999370702288137,0.5660409859057978,0.4614064395590007,0.48516727199525,0.4528305682284582,0.3238928543569953,0.4175490880242242,0.4438806121269951,0.4161952594485817,0.4699375105364644,0.4283824766143732,0.5132863340673485,0.4292051497732923,0.3690665748853857,0.4127391316978197,0.4331674098922576,0.5152705744385535,0.3378731386929393,0.4208805912880025,0.5492444935282588,0.2690584042797534,0.3611087682833113,0.423187362668005,0.5019689556189687,0.4851797165619208,0.2801420120278048,0.4094061767713828,0.4077385867680173,0.3534996265469115,0.3404584446654733,0.3606117696523508,0.2449891676116457,0.5753042008730839,0.4622061613532275,0.4042523073247454,0.4117850424710684,0.4336230396631116,0.4399705700740885,0.3165469894278256,0.4093086959976035,0.4990451382581488,0.4992442444805232,0.3606062036128079,0.325592433202916,0.4047200868886904,0.4279649898086348,0.4224196297224645,0.225352478420804,0.4561103821026228,0.3596422359745321,0.3758839348640691,0.3311557893117874,0.5012938575420642,0.285252860835139,0.4825907961390368,0.4516072813205287,0.5457621331451724,0.3510701196894366,0.3420583073652019,0.4532268157110815,0.3536466918625101,0.3292146735737062,0.3984942691174674,0.4390325967458623,0.3220096211692609,0.4388450909730612,0.2486996198089582,0.5023789694163318,0.3362322695648231,0.3817371667268847,0.4744403342470412,0.5120747403310669,0.4529189152495532,0.4896950174642752,0.2378107159151959,0.4185108245127347,0.3871378561736289,0.4747210766797073,0.4607195684539725,0.4440295935256077,0.4075072027404849,0.2457910408095172,0.3955370781783093,0.3598592571701665,0.3894900655450892,0.4056509784814678,0.4388460566614423,0.523469588938234,0.45005689620957,0.3933888503624376,0.3796547880104515,0.2631145211835885,0.4142341341019016,0.49174485885822,0.4965638752021218,0.3628972882254855,0.4664789609457558,0.3693189356875276,0.2827111980917726,0.3192000919666836,0.4610199723706338,0.3837337812265993,0.3438253531957276,0.2436923241056448,0.2991093470155596,0.3445099393583968,0.4370486076477362,0.2712943802002545,0.2832547152683434,0.4147678581305068,0.2181534139027088,0.5544226973427019,0.4059647949731022,0.4238564666575803,0.4090303462787098,0.5541779581509022,0.557706216305049,0.5501339205202495,0.322733857491396,0.5873487589321936,0.3778992327749464,0.3479421162254272,0.2676899946062045,0.3891157905791549,0.5482731617572957,0.2377403915676102,0.4149394476243729,0.3591249267377223,0.3246684771074981,0.2310375489969453,0.4004237870680054,0.4116743058218312,0.4192419415788539,0.4182854364158239,0.4115254700606015,0.4400069045332515,0.4226697243973948,0.4098469087326309,0.4470456744509515,0.3330485017903866,0.4567775360484065,0.3170112831961396,0.4135996411746597,0.3690415179986748,0.4497882694168268,0.4130454644051962,0.4636193004189295,0.404134048766974,0.4259853943436372,0.4240739714681286,0.4515565291375576,0.3017178800338327,0.3768529725760739,0.4979128004339531,0.4777327265576121,0.4186798524448433,0.302981113542448,0.4986195069037962,0.4178826641724729,0.4364461228416821,0.4064551221744336,0.3913335797049556,0.1863293582639786,0.3687178530158042,0.4883018428508658,0.3146257577617948,0.4308553854178947,0.4813258900732652,0.3056078084003752,0.4682902766354947,0.3825732399029575,0.5043288645611023,0.4051303311450618,0.4394355162058786,0.3431025998006587,0.365716067694423,0.3902798327608054,0.4126094144966519,0.3481130035195991,0.3893803454088025,0.3945336798573155,0.3677295287003135,0.4823596323542274,0.5793952988788401,0.2832225656851287,0.402997747835776,0.4206319402588822,0.5119351023650452,0.3079567844901507,0.4374463635504176,0.3909374931497499,0.4553484162943051,0.5722780627076945,0.3455699732102577,0.590573179158685,0.2571619828378228,0.2770263617181496,0.4094959969767203,0.4612674757157545,0.4732202048111674,0.5103600134861798,0.4598409095243618,0.4455594366460383,0.4332193794708905,0.493588006555008,0.4667627249330407,0.4028256264412964,0.4298740071164955,0.4290477083601401,0.4193043067700628,0.4870081777051205,0.43083199125834,0.5004554951399945,0.5258812191295787,0.357915078651682,0.2821161555087844,0.4278333854859377,0.3773226989530649,0.3868499070185122,0.3917341619886847,0.4412929896742373,0.434359930542479,0.1682876230240452,0.3875696835430134,0.4226335087857731,0.4354343281508665,0.3673303382630568,0.3682692005192415,0.4040654378384041,0.2986154951947288,0.6831564555410432,0.3612564641746403,0.4128900757569262,0.4019882385499413,0.5308359182270962,0.4333591563186502,0.308275245759636,0.537662764065768,0.4322463795080567,0.3167330988248056,0.3939505798144786,0.3085518975279143,0.3922047141141153,0.5415939519207793,0.4334213193390736,0.4776798265523749,0.532885548415414,0.2650239822628688,0.3908886587204468,0.4443175601197558,0.3401818010045337,0.4676884226183471,0.3802705874781271,0.3243345326439902,0.5333973310031725,0.4830637267018604,0.4122598687795484,0.4553122721414891,0.3662585280071487,0.4658081398172812,0.4081051944512523,0.383869133753462,0.3006900650244611,0.3554463562615678,0.4698009314478327,0.4298157520780074,0.3641587334170904,0.5316069948628859,0.5260558931637038,0.3510332751310153,0.4610470897582723,0.4607013076290023,0.4978035789828714,0.3889198701113185,0.247150429758106,0.1850006321666803,0.4267571567364611,0.4181734514207547,0.404193963011537,0.4149115269752201,0.419249533698674,0.5056734577647206,0.52252635871566,0.4990006647237122,0.3673492707254152,0.3090801442162184,0.314017249554485,0.483411075972786,0.35566626548583,0.3713452703330864,0.4067541844365153,0.3446320363643432,0.3280222051273941,0.422518392958483,0.4425596433487535,0.3623759437074155,0.371089015715413,0.4347222081921241,0.4860226873657409,0.4793368500154177,0.2585676997807237,0.2899138252835765,0.5542557395735483,0.5304454138763279,0.5019356346054495,0.468391529206103,0.3567722594141743,0.1924591262746231,0.3795000806036245,0.3885779751199095,0.4023535401144429,0.4960442240655978,0.3931037770928841,0.5708741658547816,0.4239330344203019,0.5314347682416807,0.4285627025992874,0.3923779285273072,0.4940811844197744,0.5483241143722675,0.4120156076615081,0.3855849833828789,0.3397248977455721,0.4180507836244068,0.4300982453316694,0.4040434136168189,0.3803184407783105,0.3873087977797361,0.5210412367984144,0.4631935370556517,0.3794781557321159,0.4007719151863162,0.2512158273614353,0.4513875223783833,0.5187248230933408,0.3589360876974549,0.423168245880326,0.499755286540734,0.3824341756729459,0.5467448223180668,0.3701025416153189,0.3541042998886503,0.5217061561772403,0.3862497424062495,0.4072440773773679,0.3804966870166134,0.3655765356775552,0.4366012342952221,0.3586535341936894,0.505839362191536,0.3414377212929638,0.4416530607287912,0.286831471278525,0.4833598153884183,0.4246812880362149,0.384875059255214,0.5048908963828778,0.4702208093904316,0.4990157679329597,0.4254859085283163,0.4530299349130436,0.4707523507393262,0.2383392457150074,0.4316271167099213,0.3874453876818247,0.343209127201855,0.5233143017930724,0.2681977696092157,0.3987447577510331,0.3080066293457019,0.3284154320673791,0.5303589823397237,0.4659839900343316,0.383776954464215,0.4147064820623465,0.2454402041253025,0.5008392157738797,0.4811637434632553,0.4594499734315896,0.4271240818576741,0.3429385396944174,0.5104760003262827,0.4089956002585736,0.4698391848862066,0.3957619739910032,0.4583108922064009,0.3591969504302422,0.2488738537284405,0.4749675926131804,0.4240670598720207,0.3107573132771601,0.500126228105334,0.3399453994330079,0.4433696467149395,0.4701753202799719,0.4257137193168088,0.3840816191337549,0.35442032281252,0.3204937009289518,0.446672635317289,0.4759964071762019,0.3409338395841426,0.2913072067597327,0.2978481416150729,0.5279954069626541,0.4131916759829904,0.4961454775589833,0.4416649034175116,0.4400453809582749,0.3429984908150528,0.3096593075933443,0.4260286524311595,0.254860283231606,0.4965200414900323,0.4316305767038733,0.3709933090703222,0.4660831822532277,0.3555425953705866,0.3483381324414682,0.3884215235860442,0.4998032106382371,0.3264497076069287,0.457344716246255,0.3578674945514394,0.3884388968184504,0.5493279345831821,0.4323421735354371,0.4039914325282735,0.4159890659161743,0.4076184802700931
AKAM,0.3160278402814053,0.3024966411789593,0.3913298983125414,0.2244442057134388,0.4108634924861328,0.4129006187940328,0.2630543760835958,0.2050622017107808,0.2188804215111539,0.3832181165397167,0.3343534004442484,1.0,0.2675361033155089,0.2737528495837742,0.2842622108867781,0.3687222563745178,0.2159312885582104,0.2453081036831528,0.3796334764713476,0.3789689701385879,0.174820223614502,0.3574425812890044,0.130363246734822,0.221515184557426,0.2138552476885665,0.2034626807813737,0.2609762400510327,0.2132817772799171,0.3112651112537488,0.2472309341668116,0.3523396641111097,0.3674928080952155,0.3563063710275886,0.3981684026279712,0.3302764524692147,0.4130806363371749,0.3254882651335871,0.1783337364746501,0.3561391336187018,0.3308946683287652,0.21949583466082,0.2045192478035679,0.2365588834500963,0.2964612741189844,0.1922118682006796,0.217609537452467,0.228722486057298,0.3845721028325381,0.3851320304157887,0.2049647120272872,0.2188566627266774,0.286673104036388,0.260242279649798,0.1859671261741316,0.2814073742579796,0.2931896454487455,0.2941371770253653,0.1886371892146254,0.310231989970969,0.3015434998829783,0.2576434868254367,0.3204630455468069,0.3202427216355591,0.2367437328561084,0.4028837718393903,0.3625068923615833,0.2313939638284487,0.2952367918241627,0.2769784614212209,0.2955327449298562,0.213647352450495,0.3072313980378952,0.3914591830816835,0.3138022792842088,0.264378474395443,0.1610440715833159,0.1997026577703821,0.3986443407669925,0.2356955641880462,0.1875138286701055,0.248293113857451,0.2527696285716236,0.2646411019076118,0.1830119214189659,0.2845681028888066,0.1750884968959394,0.2974626393743764,0.3502625494809414,0.2848142878614693,0.2341980800636249,0.2358838335421818,0.2021042674623502,0.2041331585502244,0.2586700971044792,0.3132017342059539,0.3049613201794952,0.2506245702618577,0.1888486020893947,0.2187989871679793,0.2275453238519119,0.2365728237061654,0.228865458229825,0.2459618955052709,0.3180796364190777,0.3990497885657648,0.2726680549310015,0.1778042674283192,0.2124452730589281,0.1933344722170532,0.2726460005555676,0.3402934275078698,0.2585154079701927,0.3000768401466697,0.2031276428054356,0.1665152187484698,0.1667909846185696,0.2422238043480563,0.3052286772253686,0.3502889371865881,0.3326423390470172,0.3377457361693466,0.3510320297746493,0.3441242582768433,0.1802225486062462,0.303905134875249,0.3008541919959007,0.2748789907735874,0.2471619600456461,0.3584649975587797,0.1649996334565707,0.19976502289046,0.2096816200852866,0.2427148115119114,0.2253075331393552,0.2003501162635964,0.2708545900734784,0.1447265263540324,0.2937111377910189,0.2276597965718376,0.214140730693218,0.1725153636261367,0.2155230494422539,0.2189182572109967,0.3182472633372437,0.2748468199672649,0.1535899361203935,0.1776573769555252,0.2817423388768496,0.2879290191697241,0.300999725781172,0.3312960481601301,0.3227320047574795,0.1795004854550711,0.2787718184177163,0.3028226943279472,0.2570256971878231,0.2752840173822563,0.1766493383672069,0.173784231009937,0.1922860843977828,0.2625722741852589,0.1557157431437464,0.3536888204397412,0.3565410697648769,0.2309756393268338,0.2153581405731294,0.276083887776822,0.1757039548674628,0.2129080035730871,0.1953672626027058,0.2175604303567243,0.2328297027714707,0.3432254614761375,0.2203532135961103,0.18776547978185,0.3717415798651473,0.3481378677449982,0.3064150581373371,0.3572516412440777,0.1519341706940931,0.2891837334693061,0.3100238835960501,0.2251206980826937,0.2029296520557555,0.2045946366033356,0.3391166067290325,0.2667906400510936,0.2436408019020515,0.3646784660422805,0.3410003911358877,0.2405791377594723,0.3053823727655322,0.2787004031726068,0.1984338002455044,0.2298758530768726,0.2539421194173976,0.3009098369407452,0.2071099339302104,0.2213503745137815,0.2584823934923861,0.3029969858080752,0.3645458666689514,0.1967652323954867,0.3134678883292814,0.1833655813578074,0.1775658397415081,0.2561526837534252,0.2026416311614095,0.1716812209994248,0.2737102011383065,0.2171307679434088,0.2180140761455763,0.2688491693278728,0.2857214254924577,0.3401889511957276,0.3303943602450228,0.2306021003860731,0.2206533689076436,0.2937095705028115,0.3013073966486491,0.2108277741413219,0.2182244633278725,0.2719215489506231,0.2906755241847249,0.3307763563630929,0.3822474788342028,0.3558432059022796,0.2550969729551205,0.2713190891355941,0.3376704852540069,0.3165360260780629,0.2553919464073284,0.2605910136565083,0.2970387797902548,0.4153805641764504,0.3486573437160828,0.3245938753591096,0.3252469202098912,0.2746238012990109,0.2978164256697134,0.2967489738979158,0.3859125962012273,0.33580764848176,0.3097528611698203,0.2836097651332117,0.2844587114938979,0.3810832382607855,0.2177072605728944,0.2126467729245895,0.2512610012857945,0.1549458432701232,0.20557079698386,0.3395154458614094,0.3397599556230457,0.1875570203338458,0.2902291025665547,0.248613112619571,0.331030337110496,0.2370271388611155,0.2787998787548222,0.2668064586804468,0.2406193682163835,0.342681096316014,0.2327247673098122,0.2042547627023119,0.274901688860239,0.2618055166653766,0.2901841220319976,0.2787282842650886,0.2451400735084573,0.2193757734793223,0.1954118894402988,0.1996450175979284,0.2516751703107416,0.2352812713649133,0.3367538452955433,0.2255158114385569,0.3307836645111943,0.3967292153747973,0.2827769224668763,0.2796699240884829,0.2341633870784884,0.2578340053179246,0.2778106359247767,0.243240334256478,0.3172456758378053,0.3098149468362314,0.3388369712474084,0.245194905605554,0.3414909009012908,0.3163034382673966,0.4330866663666079,0.2474056256051328,0.2203015289002395,0.2146002088068647,0.1973518046537553,0.3421425139477115,0.361306298605018,0.2608535029668404,0.4110386327785411,0.3368657506011486,0.1829709292097404,0.3250836531780287,0.3672131482746892,0.3413541116022593,0.334218232070846,0.270835469281809,0.0919218157076198,0.3008931925782831,0.2869949423636857,0.2155778398068264,0.3192518548005489,0.2051338102877145,0.3302970969346738,0.3018144339695212,0.3054140637134322,0.2543475197187284,0.1892597843158954,0.2112736097775238,0.2885360939889893,0.3356819606781825,0.2342011888122387,0.299370262944392,0.2444328177129694,0.1600213546090976,0.3469010575818611,0.2786377527223873,0.2781284718950442,0.1728321063931214,0.3600779774176191,0.2981068707709182,0.2749162729251591,0.320843549745695,0.2204532473440381,0.2905837236649906,0.4080963208744914,0.3167457013826144,0.3038012433728024,0.2644395920599699,0.083886669589169,0.1872187230190055,0.2091765000435816,0.1632590829522202,0.2570302235831918,0.3229356717746619,0.2802767434474318,0.1941207760053566,0.3012471152380617,0.2734434526311131,0.2496951526612703,0.3269954955990066,0.3091617841716332,0.1773312738513029,0.3351122270770153,0.2288085950828465,0.267525822406915,0.2608559705895777,0.299633899582112,0.2479441128411532,0.236061542915501,0.3189014893706124,0.2360300183655455,0.1158451941485494,0.151842522298129,0.2932937360754061,0.2330128824801409,0.2813350605841114,0.3114324852507202,0.3546357215970819,0.2926141381706483,0.3067203838079561,0.3748674098888733,0.2280911620702227,0.2286035309478777,0.3814095551970751,0.3908994422186315,0.3390883744024458,0.1533909253420172,0.3250676462959956,0.1941563403610339,0.4081913538131014,0.2927890475651173,0.1162904410489708,0.3511837498030475,0.2136584590516186,0.3015184390224165,0.1888934212888342,0.2346938826234089,0.2947782187330322,0.2863544424295484,0.2786672418828739,0.2327038886484187,0.3073607468701582,0.3040934251322292,0.1736842782768317,0.4226110148557033,0.1837913520663009,0.2892372927400073,0.4017131209511831,0.3058583278469808,0.2180819784194359,0.1505259926314697,0.2297589949334098,0.362777046014035,0.2992068031739895,0.2849655655049233,0.3272906877469893,0.2311523721102301,0.3875564039826923,0.291354207984526,0.3895569443561386,0.253967584599314,0.3045385650230098,0.3079537466651195,0.2110501840807176,0.1997689267185685,0.3230203265824091,0.2356516451496969,0.3674222143813452,0.1373251992965582,0.2587403036647769,0.2222809406097997,0.1963429257885178,0.2911702377409763,0.169475511619538,0.3147279941463768,0.2972221908427546,0.2603195191839915,0.2145538515789569,0.1882939142944922,0.0965048516573962,0.4314756968268771,0.4185217462464178,0.2135139249080306,0.3053919531344725,0.2033319355668049,0.3740803145205833,0.2325960622776052,0.2421141442668037,0.2822038565822146,0.252400761685158,0.2785338000769519,0.2546178954935865,0.2886555320553041,0.1972555817421335,0.2895847181916394,0.3076397570038369,0.2142713545715543,0.2539580527251807,0.1153193846190567,0.3312401837983696,0.2998441923506457,0.2774302707213631,0.2049345383418971,0.2794724604784017,0.2070290324994411,0.2031506614053967,0.3168887663445945,0.2594085790880355,0.3301799697387926,0.2433777625649013,0.3285599069409722
ALB,0.3873151551267765,0.4203284193084309,0.3113484797538966,0.1818105136238832,0.4054564035042786,0.3284510817901587,0.3192624217501806,0.372168239035939,0.3741040245724017,0.431253973084295,0.4242521425719017,0.2675361033155089,1.0,0.3566471181594824,0.3624827610584173,0.4440834019117589,0.2398040397407088,0.2833095102444702,0.3425188385567044,0.3399193167902642,0.2547734661683498,0.3022339779049668,0.2913665443652246,0.2488882309648973,0.3447101591913161,0.2309682986848701,0.4134850647371804,0.4114965952391534,0.305032614098145,0.2653889248037565,0.496323124199431,0.4796618911798279,0.2352845906629587,0.5038046492757158,0.4456506378732378,0.4098207915647887,0.3104216418136445,0.359803426296684,0.3812276391044901,0.448626327651055,0.4340550998651354,0.3346249143321945,0.3677770512455653,0.3222093923009237,0.3300854378915195,0.2718331650805948,0.2718028252350075,0.3968105058295359,0.3779972168517834,0.2389989051106354,0.3345591628764142,0.4526419846744134,0.2604901671577823,0.3414852950193938,0.3421952089629844,0.4431148197918128,0.4352691902684155,0.3265710978263482,0.2849088686718078,0.2606246586419735,0.3082191333790528,0.3186538608738489,0.3495402575089977,0.1670529921761847,0.4792183277112788,0.462545093737093,0.3857861523888296,0.3938832265592466,0.4246343340546532,0.3248594715497887,0.1905214447216841,0.3636180538433361,0.3845164199850845,0.3422731007799722,0.3509071324778717,0.2994799784816452,0.3896996977659637,0.3680198060115416,0.3259400702253447,0.0940878329815715,0.4394539552963421,0.2636654977802438,0.3624186808570619,0.3471824238679677,0.4906388378242873,0.1400766298868052,0.4573106786401557,0.3958769122531569,0.5313210490108686,0.2164903783066487,0.2427455644640784,0.3156772983216581,0.3635959558553808,0.2890797639259028,0.3634636374766973,0.4089336145353833,0.2759902770174719,0.3726926957563034,0.2228454840250294,0.3272421810927221,0.1114995520402685,0.2511708661900066,0.3608038192173871,0.387098916691611,0.3474305778305402,0.4379522757917904,0.0918136427165543,0.2246573993398166,0.2139406631126168,0.2903954251226601,0.3755943954769282,0.1813889677916077,0.3195821582677888,0.1249885627608543,0.3554430469658925,0.1909549602884379,0.3197269259089469,0.3242207402484306,0.3876305090130234,0.4658957751059019,0.3922221860284429,0.3300826711935337,0.261075563639486,0.2768265319415095,0.2954061624810863,0.3893568254801929,0.4350699483628821,0.2730595533330158,0.3391739385036331,0.2854074951763813,0.2463310206440424,0.2931890886053206,0.4300254253323705,0.3621455801902351,0.3740105737478541,0.2238824083428863,0.3217700207899711,0.2749518327434609,0.4114435012573077,0.1824363572426633,0.1914660938359637,0.2449545598776323,0.1944968164978296,0.4760441583070823,0.3356843455647667,0.247192701170986,0.226824883948119,0.4845078673570675,0.5398100318097916,0.4817113789642808,0.2977394116359603,0.4418197117210621,0.2734777843933164,0.3000439706681909,0.2056287919730096,0.2435758326449085,0.46185910847332,0.271217794232419,0.2429666633328104,0.355632728825675,0.305807101147776,0.2633457761545719,0.3697095869557531,0.2750766537804008,0.3228948691029628,0.3103460089791759,0.3822983290951925,0.3071153720412798,0.2595236516008948,0.2580138323318347,0.2946706063446694,0.3215565959369573,0.3856898141259568,0.2832300997850362,0.3839557224214235,0.3504646431166288,0.3168737960543467,0.3070426431423338,0.3766104906098933,0.3325252024281531,0.3736985253282612,0.323772359921077,0.4181086532442232,0.320538427698473,0.2424817495737558,0.3557453892705971,0.464187417384831,0.4353846204469341,0.315257021350746,0.4656118534770778,0.4393621589034944,0.3766772251025274,0.3526694663274887,0.3870321027291706,0.1998268446786469,0.3870461033124213,0.3724621540709873,0.1124916741117401,0.4236844077096531,0.3987063691357239,0.1766126926636321,0.4074800849340751,0.2927661181570829,0.4478399191100826,0.3899289078962564,0.3153917249443116,0.3239732972461407,0.2985745861696021,0.2903623281915526,0.3289408878654842,0.1730375807939196,0.3733988411752498,0.3717989746287435,0.2781135040452223,0.3656037255104288,0.4668560085285238,0.148552777725024,0.3969719255294466,0.3643736221898576,0.4309891087932881,0.2029216996015772,0.4135626931346807,0.307232225609565,0.3444263732499966,0.4371044210888325,0.2913401966097174,0.4700890658995358,0.1755895099835206,0.2488465043803276,0.3360520473604304,0.2721115649491266,0.3927813191941411,0.4181640846746027,0.4081717058326555,0.3956246694878751,0.3549856272205725,0.4660563069237628,0.3753385097477764,0.3531721166550198,0.3793943006847048,0.442732442469324,0.2858763729295882,0.4407881833815631,0.2415784059979657,0.4122799591338892,0.4273443937157645,0.3118261523828867,0.1460135965242118,0.4087291903239134,0.153231423238999,0.3390505897586663,0.3477748683965322,0.436394295531736,0.4227665666390217,0.1035483873594647,0.308022070300242,0.3282811189628739,0.4222781067655591,0.3605876500550272,0.2525067076732888,0.341970743157875,0.161152394796091,0.4526700497734449,0.3667241285665467,0.3926744706138281,0.2652712644925428,0.4443589250585588,0.34824687918117,0.2740839970166395,0.5053343227977555,0.4092902907995839,0.3586456475293705,0.368473062115054,0.2059393747324642,0.3678215039102844,0.3443633068096475,0.3849243372033078,0.416366339934604,0.4164367663960009,0.3065298301311683,0.2071678283268195,0.2532082716587185,0.2408055381719214,0.3357155684143665,0.1862188636231564,0.2759767309381027,0.4722493603320124,0.4354022834744249,0.3741265247772956,0.482870345363998,0.3585620753245897,0.3658144252886322,0.3378541644555848,0.3916664712344232,0.2200385848398956,0.2783249248153647,0.2721426773996551,0.4499579257705784,0.2675307630480071,0.4004166010380788,0.4629317921295215,0.3884112267471989,0.3437081820778415,0.3581886522159109,0.3861860481529224,0.3772088882722195,0.2190762331245919,0.1608478024877926,0.4119067470013805,0.4025254663710029,0.2704622922488415,0.3377244942429884,0.2776163184549815,0.4330148282756156,0.4093742165927443,0.4392571773278708,0.2381062302578963,0.3553903376975287,0.2548419889749312,0.4278691530156737,0.3705708824024585,0.3081059549620453,0.4139143556506727,0.2302734233858407,0.3527037752602814,0.3628970932876153,0.3915965353500136,0.4293495610790765,0.3312723893234209,0.321666746349646,0.3970775326321214,0.3950897263124878,0.2510313266443051,0.2938816634480247,0.4959702194130426,0.420895207346855,0.4621798651522175,0.252295871599142,0.2259912216587784,0.1443965066572044,0.2606350781331782,0.3443385346062636,0.2336338599263468,0.4426659192417073,0.3557936531184323,0.4642957268976068,0.3163209141542654,0.4881172362522278,0.2153205060178198,0.2243903309244178,0.3702625756828901,0.4833522700932156,0.2561559585152835,0.3823623362678451,0.2569574187704474,0.3442437517203871,0.4349479999842456,0.392410597991139,0.2591478673865007,0.3699476772344712,0.4703275362247641,0.383329101849428,0.2551759102701156,0.3309591418769573,0.1895373118301505,0.4348544097709216,0.3066511996886434,0.2800764438905554,0.3995878392803073,0.4479357617520865,0.2887713303133603,0.356985299088601,0.3246007159436164,0.3699252009874053,0.3660423691158905,0.3222394492415397,0.2892621355828715,0.3818366794566366,0.3262036771301425,0.314968097137274,0.3189717788792147,0.3713481598253091,0.3366468146578785,0.4218295989639896,0.1382149363763404,0.4305655242168088,0.240748728724029,0.3629775234726783,0.4492031301603365,0.3338314377862892,0.4470299754763844,0.3972449264790101,0.3613642321593535,0.3608684370848131,0.206787802061958,0.3881099552983531,0.3012636222252987,0.2447863471773051,0.4837233697296767,0.2513915057526822,0.4103674640068839,0.299953789783585,0.2362991401324012,0.5085426407151299,0.3678622145013073,0.2845559554482529,0.4418439765544676,0.3374788422450959,0.4334819341720722,0.4777037023730476,0.3612561438016714,0.3582010059370327,0.2701503455302889,0.4291891474880311,0.3350058432249724,0.2893994288135024,0.4023848298367286,0.4313975387976066,0.3197211125757436,0.2203750787078053,0.4277745288296156,0.3295143725343722,0.290051510032019,0.3892883731124416,0.3302814400040386,0.3741422495296115,0.46240185570823,0.2450785446471098,0.3008954144473823,0.3296883553079306,0.2505375853985935,0.3218684962482054,0.3009312631032922,0.197206695497427,0.201860818232939,0.2523653502771951,0.3874618435640071,0.3495602413344196,0.3342601566095189,0.3511811267171569,0.4320774726898059,0.3437713329902986,0.1687629922932563,0.3613745030588106,0.3184288611941145,0.2776795350342905,0.3792357908687487,0.2175091797917517,0.4046397178363695,0.2528267517706516,0.2995900671217169,0.3573259783622743,0.4589721125963342,0.2954033002130369,0.3162383328543579,0.3499526255594394,0.2183148949087262,0.4660676418238402,0.3119913889018281,0.3940539000734275,0.3311142273393069,0.3315323667858019
