,MMM,AOS,ABT,ABBV,ACN,ADBE,AMD,AES,AFL,A,APD,AKAM,ALB,ARE,ALGN,ALLE,LNT,ALL,GOOGL,GOOG,MO,AMZN,AMCR,AEE,AAL,AEP,AXP,AIG,AMT,AWK,AMP,AME,AMGN,APH,ADI,ANSS,AON,APA,AAPL,AMAT,APTV,ACGL,ADM,AJG,AIZ,T,ATO,ADSK,ADP,AZO,AVB,AVY,AXON,BKR,BALL,BAC,BK,BBWI,BAX,BDX,BBY,BIO,TECH,BIIB,BLK,BX,BA,BKNG,BWA,BSX,BMY,AVGO,BR,BRO,BLDR,BG,BXP,CHRW,CDNS,CPT,CPB,COF,CAH,KMX,CCL,CAT,CBOE,CBRE,CDW,CE,COR,CNC,CNP,CF,CRL,SCHW,CHTR,CVX,CMG,CB,CHD,CI,CINF,CTAS,CSCO,C,CLX,CME,CMS,KO,CTSH,CL,CMCSA,CAG,COP,ED,STZ,COO,CPRT,GLW,CPAY,CSGP,COST,CTRA,CCI,CSX,CMI,CVS,DHR,DRI,DVA,DECK,DE,DAL,DVN,DXCM,FANG,DLR,DFS,DG,DLTR,D,DPZ,DOV,DHI,DTE,DUK,DD,EMN,ETN,EBAY,ECL,EIX,EW,EA,ELV,EMR,ENPH,ETR,EOG,EPAM,EQT,EFX,EQR,ESS,EL,EG,EVRG,ES,EXC,EXPE,EXPD,EXR,XOM,FFIV,FDS,FICO,FAST,FRT,FDX,FIS,FITB,FSLR,FE,FI,FMC,F,FTNT,BEN,FCX,GRMN,IT,GE,GEN,GNRC,GD,GIS,GM,GPC,GILD,GPN,GL,GS,HAL,HIG,HAS,HCA,DOC,HSIC,HSY,HES,HLT,HOLX,HD,HON,HRL,HST,HPQ,HUBB,HUM,HBAN,HII,IBM,IEX,IDXX,ITW,INCY,PODD,INTC,ICE,IFF,IP,IPG,INTU,ISRG,IVZ,IQV,IRM,JBHT,JBL,JKHY,J,JNJ,JCI,JPM,JNPR,K,KEY,KMB,KIM,KMI,KKR,KLAC,KR,LHX,LH,LRCX,LVS,LDOS,LEN,LLY,LIN,LYV,LKQ,LMT,L,LOW,LULU,LYB,MTB,MRO,MPC,MKTX,MAR,MMC,MLM,MAS,MA,MTCH,MKC,MCD,MCK,MDT,MRK,META,MET,MTD,MGM,MCHP,MU,MSFT,MAA,MHK,MOH,TAP,MDLZ,MPWR,MNST,MCO,MS,MOS,MSI,MSCI,NDAQ,NTAP,NFLX,NEM,NWSA,NWS,NEE,NI,NDSN,NSC,NTRS,NOC,NCLH,NRG,NUE,NVDA,NVR,NXPI,ORLY,OXY,ODFL,OMC,ON,OKE,ORCL,PCAR,PKG,PANW,PARA,PH,PAYX,PNR,PEP,PFE,PCG,PM,PSX,PNW,PNC,POOL,PPG,PPL,PFG,PG,PGR,PLD,PRU,PEG,PTC,PSA,PHM,PWR,QCOM,DGX,RL,RJF,RTX,O,REG,REGN,RF,RSG,RMD,RVTY,ROK,ROL,ROP,ROST,RCL,SPGI,CRM,SBAC,SLB,STX,SRE,NOW,SHW,SPG,SWKS,SJM,SNA,SO,LUV,SWK,SBUX,STT,STLD,STE,SYK,SMCI,SNPS,SYY,TMUS,TROW,TTWO,TPR,TRGP,TGT,TEL,TDY,TFX,TER,TSLA,TXN,TXT,TMO,TJX,TSCO,TT,TDG,TRV,TRMB,TFC,TYL,TSN,USB,UDR,ULTA,UNP,UAL,UPS,URI,UNH,UHS,VLO,VTR,VRSN,VRSK,VZ,VRTX,VTRS,V,VMC,WRB,GWW,WAB,WBA,WMT,DIS,WBD,WM,WAT,WEC,WFC,WELL,WST,WDC,WY,WMB,WTW,WYNN,XEL,XYL,YUM,ZBRA,ZBH,ZTS
MMM,1.0,0.5235794832779862,0.4423446141507921,0.3234980120350842,0.5049229024627128,0.3390573454508895,0.24913895385784388,0.36483577344627915,0.4654858090714476,0.4477629787457875,0.48878790030858876,0.31602784028140535,0.38731515512677656,0.41937273581449,0.36389327210766353,0.527010946728343,0.36453121573109404,0.448369345870475,0.3898819061797602,0.39017397137924126,0.3968556669254046,0.2823781586963293,0.3958141562295053,0.35371135961677225,0.36617684821298097,0.31465886348002126,0.4830712256223207,0.4629797184722402,0.36000722436257815,0.33365107725139925,0.5469895523247318,0.6069376516147703,0.389311765709435,0.5528759546689089,0.4468322498694289,0.3788165062376163,0.4146923929286107,0.32266037008410103,0.39867254131234664,0.39818635347430725,0.4144486230487954,0.41236538645926424,0.40749172102123205,0.4177539276329618,0.3902384644188204,0.39915180839163117,0.38272676615534845,0.375906076121207,0.5171318591683923,0.324521738004005,0.3679232664985583,0.5506300180949045,0.22213355001471213,0.3405670505349527,0.3975387760904688,0.5173753431841315,0.5029292203875471,0.33662515962643674,0.3936006129580822,0.36238311718884836,0.3732609208344222,0.306159350088641,0.30946997524479136,0.22124485922093487,0.5597124441486401,0.4475297660969944,0.39821817986734065,0.3651359514945282,0.4833823231229933,0.3962628252089811,0.2800953050728174,0.3859220758512677,0.44400890057560266,0.41794273149672095,0.3699236742797915,0.3040817297637743,0.4276711124021871,0.36794896774644054,0.322227912376683,0.37400619934236434,0.2084498685458349,0.49276104089761613,0.35584521966938976,0.40215312881568915,0.3447135573171382,0.55763870039295,0.23205571502164993,0.5118922734713853,0.44291585497756125,0.5290405770839303,0.33717489000780093,0.3029019229829286,0.37959122359323805,0.3206669494970565,0.359395124208219,0.4574000347700755,0.32714956057585276,0.41663614523250175,0.17979583110019895,0.45069552625998327,0.2716490488733423,0.35423738963481144,0.46352030100408864,0.4661981438127647,0.4997475661615383,0.5154261241727858,0.22235784456398225,0.3251108175149575,0.32612713397567333,0.45201675753497855,0.4525234961672922,0.3773394019162766,0.4298310554405589,0.26528330092435953,0.36781370483904474,0.29871484910622925,0.38432711598316666,0.3930210823925965,0.42495530816336147,0.5643980708362747,0.41588665985212425,0.32294700083409034,0.3554384725281756,0.26130691714204557,0.35574206987137214,0.4956973654048757,0.5545203494498145,0.3589315477055355,0.4219693321078446,0.3606610702808522,0.316110452156888,0.2834588748960654,0.48287605776717313,0.39979558286799527,0.33876516851901706,0.17979961607316436,0.2893502971471615,0.333060717415022,0.4628130511320271,0.2510770514943601,0.2622751431124416,0.34967069503498693,0.23656708408285063,0.5747595070140664,0.39870231342507706,0.3820465200707643,0.35696231600060874,0.5334854601752586,0.5670789196741772,0.5932473208392696,0.3531129929849082,0.5465831217300484,0.34306417763267805,0.35183509559182075,0.2386589789126205,0.34063553862944335,0.5842053606413563,0.17646157622412395,0.34608373688159344,0.34774624757107525,0.28929472845857973,0.23658853766028806,0.38771367372485727,0.3639462938749598,0.3698147074818323,0.3914485456075224,0.37172420505888987,0.3618853380144693,0.34575847204151455,0.37023405466582643,0.3105225319863654,0.49921076084749955,0.31266254796575804,0.4147410380610101,0.39241676259848063,0.4152080165138704,0.343735589844549,0.5002507810577761,0.3973904273088907,0.4889380193203793,0.40431692994034624,0.484858891174884,0.2584957724758305,0.3049989838387666,0.4552390542436502,0.3951989526690097,0.42838748972301705,0.2396923110776167,0.5444643616468735,0.3871352628670407,0.4293108739220016,0.3857581931494241,0.4677104817194384,0.24178578138394774,0.3461171729033406,0.5262936022141558,0.26077871088457955,0.4457531286671415,0.512219088634329,0.3111422678204322,0.4424391247360449,0.3533829302520978,0.5351632814907061,0.3640582993676283,0.44145172659956805,0.3805009413099766,0.3846799081513367,0.33656016664828686,0.4231143323608076,0.2882741925774504,0.35697971795540884,0.37833207429577626,0.329604505815958,0.48881422043638695,0.6346812432268845,0.2845443565636705,0.41607176132877155,0.4641517506454623,0.519762076804717,0.2772777811414152,0.4810699498917114,0.4460872956206597,0.5044795460220213,0.5688053966166019,0.33183473688749604,0.6737948422309944,0.213815884534013,0.18630366599074422,0.4087328840436179,0.3812329482112065,0.45014500687372305,0.5086122861825408,0.48913408073473186,0.40180830048154326,0.37185510749656586,0.5375367145620356,0.41823273679388123,0.4131949694660061,0.4602941645812443,0.43092991479518283,0.4006241265881857,0.4940164562588868,0.46192094455073973,0.4867007923868221,0.5285871902462291,0.39744129110072923,0.2979180848125698,0.47498092823507115,0.34308429916103406,0.3896948235233776,0.35856212096252155,0.4315327146660968,0.3858770400719474,0.21325383720715024,0.387542748378635,0.3881267006341593,0.3881543866530969,0.34143140188738014,0.35678321482347797,0.4067110501299724,0.2664454966516343,0.5082622203897874,0.3566596552908782,0.46366359450196665,0.41728278390241774,0.5424666197883059,0.4459649471445981,0.267080508613893,0.505528475133142,0.4745130156301259,0.30391959335077834,0.35033195258709066,0.22713504265229667,0.4124983050734661,0.4674977142638842,0.41046554863360596,0.5123763336089853,0.46791227253728607,0.22112689231882424,0.3462163033549868,0.4051764084051666,0.30732247685235065,0.44916848580349383,0.31306633730215333,0.2935095263446427,0.5362262242840556,0.47288437164174263,0.39699243107368765,0.4403169308234959,0.36250220954734463,0.40547960559988816,0.36824090192759307,0.4584503685082522,0.23677433477224508,0.37658311155310153,0.42013817511953305,0.3802316944417025,0.3143071570363826,0.4709406713379979,0.5402395653389631,0.3374896883077619,0.40980667039516433,0.37552556442059193,0.4281357796430775,0.4233202442110162,0.21829208362476013,0.12046134184471079,0.4423124150755316,0.43495603064591637,0.3326842028681173,0.3529030903498911,0.5327945225411679,0.5262766597177194,0.5317475965195555,0.3692105634872896,0.33650280422339135,0.3087785465279767,0.4684535386181855,0.32118166858334724,0.40646607643063615,0.3866433891095188,0.3201353747752575,0.31262110768047247,0.43479193671011535,0.48659383823339675,0.38613776385030457,0.3406230806710919,0.4088801164211085,0.5353767819828293,0.4766320936361537,0.19060546775919068,0.36453909408963214,0.5953830614395308,0.5357040801892707,0.5649605842493683,0.4215205233986075,0.35691033462856814,0.14684358287928412,0.39930674746791406,0.40118626731955265,0.3564508873094083,0.5251866690478559,0.4183103337133557,0.5406482045456321,0.4033644118600108,0.5515752293462487,0.386267802692433,0.35382669296552155,0.4271759246968643,0.5600481873421402,0.3640631328957204,0.36974189835630517,0.3166914530617188,0.40763992672153043,0.42493062942704185,0.3508819583744456,0.3612600791084998,0.39471445840830016,0.5004159809397046,0.4598410365959083,0.3385979086151235,0.3913141857708432,0.22100616061718942,0.48099972039937,0.41502565308195577,0.31370111895053704,0.4071759962175752,0.5451379213052474,0.34922417147283663,0.5476005059030866,0.3624851387033451,0.3611712634338652,0.44838974073321486,0.314767787280119,0.33599310925493614,0.3773802973261974,0.3535868319280743,0.3763304476643683,0.26608041916177266,0.47862010377407255,0.3847031158483256,0.3970024035728229,0.2860136074597107,0.5360271426964273,0.3442623386529512,0.36629841262233526,0.6064374038418258,0.3988736814035607,0.5143924655318965,0.43116580028531903,0.41289426768517196,0.4651397433829055,0.21526801684582478,0.3382220694989749,0.3881114008618967,0.2918198723554398,0.5576599082910293,0.23596277566877455,0.43704794362832405,0.27999090820831596,0.328948559927337,0.5303272582956525,0.4488150147447268,0.4081492692023903,0.3945935707226662,0.19576307112305769,0.47193600596182883,0.5152642970051561,0.411440212934058,0.42036862900285876,0.3456785945183504,0.5213100104279524,0.3767024203464937,0.44476883293007724,0.42101952411584453,0.49857699268673455,0.28715580009570907,0.2993563767062767,0.5224554447218855,0.37786082993050457,0.3161709548777809,0.5141862442708512,0.3488556587782177,0.48808756696474304,0.4943013094974396,0.3696197030932477,0.40009215833501177,0.3552132747803981,0.3066471762035139,0.3816679326682109,0.40492464672836026,0.3367407699966483,0.2595243269873903,0.3225706422550086,0.4720411752522838,0.4080091874120398,0.4399353342838076,0.46403995221586797,0.47366162572396014,0.3955068185499831,0.2841946512067723,0.42942192378224475,0.329098389386887,0.40629329057047336,0.4470174910458798,0.3362506484541433,0.5011320339640334,0.30400997095906895,0.2984436479747233,0.38549094817347634,0.4800672414740178,0.2989298266091756,0.3930572651074961,0.3244178844091814,0.3198843094706089,0.5798769009748715,0.3978365310897334,0.4092583148218541,0.40360812814491587,0.3832781266683398
AOS,0.5235794832779862,1.0,0.3864544351909446,0.27774118650725693,0.47024382634596124,0.37111091268030105,0.29960023415116777,0.35077366760521406,0.4395134410825441,0.47163856626806383,0.4601824378436842,0.3024966411789593,0.42032841930843096,0.38297507621910787,0.3726325774102448,0.5766339842531759,0.2647066179412991,0.40286145896447784,0.39460919511861264,0.3937293039804106,0.27148903002198693,0.33980206524068873,0.3116113341095194,0.24042016705812874,0.3521535937391206,0.2284999571797952,0.43808727139709586,0.4523679427147991,0.3373932617214003,0.2865836467635546,0.5389457947212343,0.5996329290941816,0.3416047421304382,0.5708483677707993,0.47013787097400067,0.4436462903935713,0.3797596135595459,0.26924955900020975,0.40202396608793955,0.4468852248420133,0.48995711252841384,0.3912022827708397,0.3642810243739994,0.43289615975117085,0.3892723245752618,0.3254216405197315,0.28150291260129,0.4110909465784504,0.4679324257602139,0.3451081737874835,0.3475371125205462,0.5274827947175615,0.28166320731177347,0.31166480468318036,0.38526082944898027,0.49148882392432186,0.498133822968199,0.36974622097705234,0.32664771816683885,0.31002767087046795,0.38925889218522347,0.335838031701186,0.33639433276981656,0.2249186625975824,0.5330578055265114,0.48338377718942394,0.4012171032861897,0.40856714572211444,0.5033179386043302,0.3731501354185736,0.2632546435184736,0.41589610575430613,0.44886849016913216,0.4572134241841299,0.47239095270793774,0.2877233014611286,0.39214361656839164,0.35305777596337007,0.3784921264850195,0.34911010225969374,0.14776430152729866,0.47490672448392196,0.32013059507545455,0.4351111049452803,0.32987343090960164,0.5135136681185951,0.23294556161374355,0.5182497583014061,0.4549465568656213,0.5352992130781192,0.2906280724997461,0.281133175803126,0.32219850647801,0.30296051471961516,0.4046806647756452,0.4676988036947042,0.3111313315228803,0.347682737476806,0.24407618002564316,0.40637548358448944,0.22970488791780744,0.3120433186142906,0.4121188859759572,0.4741445406001947,0.42075910780361425,0.48389871033860343,0.17476009494283928,0.28130916551519447,0.2282420628106544,0.3490227633826661,0.43001480461282693,0.30677688396150443,0.3923329146536513,0.21860706802135438,0.3074076777303403,0.1907675320075013,0.3334016665158581,0.38326763668153385,0.4677833002850524,0.5181379215815123,0.42415828304905034,0.38668494378269036,0.35900881322490674,0.24892880626836322,0.3291809421984729,0.48342116303938,0.5168547558414124,0.3340517037373034,0.42063089293760214,0.3467242371262471,0.2959192963851204,0.3564814142573934,0.48477077842869687,0.4006450517053909,0.30746184804831317,0.2333168687118738,0.2766733156960958,0.296494001849875,0.4465215608482985,0.2692411033740862,0.2902296962545955,0.2292319551152873,0.2573568304418543,0.57514394710032,0.47340698432121414,0.27419127661440446,0.23190429220696984,0.49136525519626933,0.5502649386303758,0.5854599397341357,0.3537844093944116,0.4851021050526561,0.2505556069494898,0.3100135840360286,0.24807017690481967,0.3045791566500725,0.524365165357846,0.2205877050296316,0.2566170021778741,0.2834325429868841,0.3062477743170521,0.24559582068748184,0.4302782566457639,0.334131794891397,0.33364492198486356,0.39662030288172767,0.33826093329118717,0.26223108002374174,0.22831416219580666,0.287984683363732,0.34581290409379284,0.48825640931525927,0.29741990944468133,0.34782091391447806,0.40228832101387635,0.40112525608783156,0.38510984118687736,0.5045902576339982,0.36321881708631576,0.448050778790609,0.35327159895786947,0.4567157761250067,0.279263816024901,0.23270393835499287,0.4134003184472024,0.4039870875285395,0.4619869341850534,0.3152466925235023,0.5227891228306586,0.3763346038374665,0.4392606184270214,0.4198348532566533,0.4085627554369923,0.23077522933940312,0.3913494105794946,0.46709128378034903,0.2148860451322035,0.4627134455008098,0.4898685431977655,0.2782049044966977,0.42971522671373064,0.3553058596458113,0.5184389240789368,0.34230081346116836,0.4185568231331241,0.36661123744762575,0.353487271687178,0.31258699395417444,0.4007625278795561,0.21469076487610056,0.31140250840223216,0.42247990561736865,0.3362260184860006,0.5170383631884663,0.554489489592697,0.19826799336798387,0.4116096611262302,0.4215915665003375,0.5465294032980451,0.2534957241252317,0.46567342852051063,0.41647967825402826,0.4173902449608506,0.5887642294460513,0.3484474719191496,0.6146208609143038,0.22058007985173445,0.2632689175820119,0.3824511100799008,0.36560330001015884,0.3988867577461043,0.4898126438203953,0.4654316335527769,0.40624291442561034,0.3580520745928156,0.526236164516676,0.42357666457571247,0.3430791756852237,0.4700125997851344,0.47287921394628596,0.37508831443533625,0.5129469953651252,0.33572925687849614,0.5307771484484801,0.49650659887233156,0.36421652116058617,0.21596294541895694,0.45285769490993044,0.27269282941250833,0.36849171445042933,0.3189405097325344,0.4812389860088589,0.4219516185437054,0.19486382991194898,0.3610597805347054,0.40306832254131836,0.4379378816893894,0.38852027721056265,0.3123969083740203,0.46549192905252923,0.23913499799814725,0.4960649850752406,0.3890450188216873,0.4550091740807969,0.33228358808999814,0.478859971747518,0.4917682459669683,0.3255485873910186,0.4764119733703029,0.4393212406452439,0.2846834091078205,0.3632256192558769,0.26546217757482476,0.42448732803377076,0.4480055021341595,0.4890346424430365,0.6098822440296932,0.4354818260909519,0.2823475033703864,0.2673970504755829,0.3165192466366616,0.28886369303347975,0.3716059312626249,0.2731517905813641,0.3227137111779695,0.5041693283125283,0.4707145299494455,0.41741757763595605,0.48783150260831504,0.4075728564309968,0.40385771503921575,0.34049238165452683,0.49720418722468046,0.2621120337885033,0.329674600935803,0.37166162085392096,0.4448966753276705,0.33299813611052675,0.4781936975549144,0.5213059246457254,0.32880580390901376,0.38727028714363054,0.39604500547213195,0.4079892834585563,0.4028207472908636,0.26633491747081983,0.08909116214417902,0.44200116346851154,0.4381465360417999,0.2441946937057421,0.28406221059790815,0.5283997810465063,0.4959447046450424,0.532498008009826,0.3095187313496182,0.31413105036629246,0.2699470929035273,0.4697299944720122,0.357482975442019,0.4273709411367094,0.46015947949042496,0.35935633724143445,0.2677909459682375,0.49757364261534565,0.43873810773992883,0.4526954736227492,0.3052834929374621,0.3976591615292992,0.5424291578688012,0.4732991640933422,0.2694499603902689,0.29371613786449335,0.5790087551230219,0.4886911686389547,0.604861995614155,0.32528411295491466,0.27551425407152486,0.1200109916632626,0.31138275841905877,0.34618536319368126,0.24763322629097254,0.4729767451273098,0.47319948206605483,0.5427029382448354,0.314659304747488,0.5333185367465171,0.2882259753353361,0.3428687911117905,0.42186143787189273,0.5200682554033466,0.28607084242808495,0.4065060037171236,0.2794324403989584,0.4768565167830557,0.4686478003745751,0.3597500905217916,0.3566836192201223,0.4236656983846892,0.5276913377131583,0.4309161133332179,0.2798942846244304,0.3667706351247076,0.2506697373614337,0.4621950902621538,0.39742837267867226,0.2845578741231851,0.4130887465607255,0.5484980809696073,0.376568647945001,0.4936296273704829,0.38767547536657126,0.36063197300411354,0.4481264998210385,0.34474776763426357,0.33831633382517196,0.3343267106276537,0.3558029386256109,0.2867117296685919,0.33753040000993717,0.4813281758732166,0.3737921966764764,0.4402014071948624,0.19619141665675954,0.5495902101628077,0.23489863551880685,0.40406950277945214,0.583809470509092,0.3909596270112641,0.507284368090783,0.4381871070561739,0.3756169852000061,0.40075600573378173,0.2696312618997788,0.4089651561214743,0.3391304561209309,0.3173810367851265,0.5536187811056598,0.28225944299943034,0.4373501795966664,0.2696369234266737,0.3297710520636859,0.5736159260130212,0.45078762231162567,0.3596239163687509,0.4343929370483707,0.23989479288463114,0.4989012810541428,0.5288007407733747,0.38792732732867435,0.41704913911413266,0.37015359868538567,0.5852248304775587,0.39682355736567465,0.3862301855702398,0.4504775257510475,0.4526926999617971,0.33750581435278715,0.26723742750969076,0.4673472983137874,0.36337298994836265,0.32094655176456716,0.47364883809424124,0.3454164518075871,0.42615214666885665,0.5199452456861503,0.33456099930807537,0.37876379398608045,0.33010328582385917,0.27675217219593085,0.38687717010044104,0.3947647495995232,0.28298795620078165,0.2530239705786398,0.3187999671323101,0.43699446877140435,0.47901922383250956,0.3953222453547286,0.4833791190622417,0.4862571391833441,0.3460242267479603,0.26203042584633934,0.395836043787261,0.30840311392956404,0.3683047670870279,0.4372486585140309,0.21509767957966228,0.46466035559369867,0.2750669166004277,0.35103152042690644,0.4002575816621036,0.48321811328236786,0.3039200616508099,0.3914961177523794,0.3734132049847221,0.23396445487000866,0.5871064910921253,0.3680015264818614,0.4390713618906988,0.3544112566329923,0.36779864022641806
ABT,0.4423446141507921,0.3864544351909446,1.0,0.44619339804028924,0.5412710204624007,0.46399652935097346,0.3121746499677053,0.3205022101785061,0.38849635390361575,0.5803726940283337,0.4822464699193331,0.39132989831254145,0.3113484797538966,0.4444478851100751,0.4271642177442238,0.44991814134920977,0.38523222206950886,0.4027997174378688,0.4502785673330201,0.4443757695656409,0.3120367178579501,0.3635767635911616,0.2555309838694088,0.39107611006936976,0.2460394508710882,0.36184953712362544,0.4074922726205038,0.3534762568540767,0.4644240594385919,0.4278221917271105,0.5088721197822095,0.5320586232645264,0.5001847941563966,0.5030267907511715,0.45253398291376146,0.5179767367255428,0.45722386511476965,0.20086152386433542,0.45869047819975317,0.40813984703645945,0.3520333549134021,0.3808998196644366,0.3425950927058182,0.49693160237782236,0.3491101700118644,0.34135272309336556,0.3718803022249692,0.44381713434750775,0.5289653010479034,0.32561689966193924,0.3861005338305245,0.4787995696459288,0.26751926734372844,0.22643080477323577,0.42637541111621424,0.42526322719924475,0.4398662444209722,0.2680191576833642,0.5503538021229922,0.5746596533959537,0.30481613862590307,0.49077005663143075,0.4743072917783834,0.34785384226386507,0.5529361559380057,0.45401101020476337,0.33514819165386645,0.34500693900930607,0.33853018628692666,0.5492364955606471,0.39330797562588216,0.4006775788865816,0.5064682146891922,0.49548227725139876,0.30020747410292015,0.24383688994306502,0.3308968739588236,0.28555975712640796,0.4736334129699886,0.38905253950145335,0.21936183584898203,0.3758288033625461,0.3803199447074369,0.3246422541816077,0.23159672555253255,0.35588027834099933,0.2975227530492956,0.43220518386727824,0.42466567198445776,0.38328063050108263,0.40023113043763897,0.4045669001519016,0.36614642795055985,0.21896172407903486,0.4974357388569318,0.38920564127971813,0.343771963759292,0.3228186999169405,0.24487976526398428,0.40645583387193895,0.3679591380542684,0.3824495017182703,0.42531598354753053,0.47243949425315357,0.4894655404231213,0.4113147419535068,0.2620324958267587,0.3894793925677339,0.3765043890306506,0.43043984227224397,0.4654853407777395,0.454345752035319,0.3953073869920963,0.24388806426348286,0.25405180399920196,0.3501356926493185,0.342089457044117,0.5163408668924518,0.4453971756913849,0.48267484242713415,0.41431340298900965,0.38198984243545797,0.4289646759070415,0.227375807104159,0.4354668191359507,0.4324552488039658,0.3834958582070835,0.36620169897225463,0.605661220332972,0.28167167912306373,0.33037668198206155,0.2756790202345687,0.35620610698109634,0.2876788548917062,0.2067905167344929,0.3798866777136407,0.1668571225224725,0.371724686309915,0.37357486693988595,0.28963094466040973,0.22855926266817228,0.3756271566259395,0.271452198141464,0.4459668293610926,0.3691602829786245,0.3402944572414713,0.3837547308364746,0.39337589716762367,0.3883481776995767,0.465182622547953,0.4145683830403373,0.4969267798860944,0.308216979266968,0.5176934085081901,0.34252598003896517,0.43981597046645443,0.41640127937074367,0.18590927529984239,0.36660096955883476,0.2087028186564129,0.3597380169539355,0.21497871002481966,0.42034081180049354,0.3807370432921394,0.3729116882958191,0.3782640823286162,0.3288114517981367,0.3899376925514562,0.3987162473511515,0.3811810604147416,0.2550648208804087,0.4224707094034973,0.3345510017171204,0.2786013537308084,0.36943874876709953,0.4917633735051374,0.42358014904372615,0.45416479653114433,0.2814780695284279,0.3738420161201275,0.4267776651391223,0.3612768906769567,0.2312739811233044,0.3358830872043149,0.49754785564664655,0.34505575703197394,0.322297379773995,0.36647001277413416,0.43788054381891167,0.30308375824359735,0.42018454685130135,0.3814004744356604,0.3059078703649744,0.2516178897466741,0.367213723791578,0.42851602855116233,0.3133721916959097,0.33143859530119907,0.39268869780695914,0.4178233997646315,0.468392396482445,0.3035094480652058,0.43106734256156626,0.23392296379044583,0.33145034110697796,0.33665058262371417,0.3832328655847328,0.3223973141488394,0.42147864421744086,0.3321099248973232,0.23973410378163468,0.3324403876961624,0.5548513866757169,0.4772587626166272,0.49340798021149807,0.28315205214976363,0.28410046272218353,0.3716210167357798,0.4177572744013332,0.3508681345241755,0.32577294151189057,0.35049414991339617,0.4315196729540784,0.48853520257466476,0.5186844461484766,0.49737127421440647,0.3762012623862242,0.4025989920253171,0.42693644423365473,0.46903993244164327,0.3889973149784995,0.3945204213756705,0.3717951943888773,0.5231145431983791,0.5399535297924678,0.4526370922413602,0.5279459354083808,0.330017759712135,0.3868989951051329,0.35403972676990464,0.4668898688210985,0.4248953131638428,0.5489692045064036,0.39669880843781935,0.44063508692614217,0.3804915280441353,0.3013621776070532,0.32928606713964037,0.38678864554558223,0.25522931194084497,0.2751631355571146,0.430444567680378,0.40757593684124355,0.18557163520559053,0.3719189011865273,0.49005735231053504,0.400897384690245,0.2628907245637886,0.35031173585216097,0.3632958145377335,0.4178377873055329,0.4926007078723295,0.2825834563003743,0.34500092397903304,0.3784283365943479,0.4214559459730284,0.4337139976475209,0.3014163422946363,0.3234350482850384,0.347659219019592,0.19243871351738517,0.2783494004191192,0.3708212672377641,0.3080657212407939,0.5313246211995073,0.34286019306921117,0.45416403212477496,0.5209700056218303,0.2912385513854085,0.3960909008205529,0.41791701570372125,0.3809345501951967,0.5623877605626234,0.47848180554294095,0.3274315452897571,0.4377303196402704,0.5602348280669167,0.31630145716019903,0.41430814965614693,0.3466829416873369,0.523815916675491,0.3981068931592431,0.331813018623115,0.37028795691502725,0.27382426958437084,0.46704084609975616,0.41551065447890634,0.3710879442207389,0.5589759859023405,0.46792896230422365,0.21273018114313103,0.44435548015063026,0.4997140389963774,0.530184675942964,0.3594431457625266,0.2568337765913181,0.12865698518828542,0.3859926516974539,0.37589958628160075,0.3908704983335802,0.36857398333296076,0.4514135133514709,0.4483883429248251,0.4333360244680637,0.35362030803457556,0.22480291813272607,0.2890201479023996,0.32228088821111534,0.3770817638864625,0.3394080304316237,0.34883987455071996,0.3404989945696255,0.21016716281237893,0.40145997527598565,0.3438359186935135,0.3392361259786392,0.23873358613420767,0.40976830574081097,0.41319280903013783,0.39291360862667557,0.31167402676315503,0.2539751635470728,0.4215722856889384,0.5488854746883313,0.44246319127093775,0.47605226912828547,0.44056137789099115,0.16211305138274135,0.3592782343536994,0.2626101962796458,0.336239240778731,0.41801987423620207,0.42828283143550455,0.44773089937345284,0.37761111805264214,0.437328368896038,0.46423665541105263,0.40494406929544013,0.49697913133313776,0.44834237580502695,0.34924818174439337,0.4187939749782893,0.358901278405985,0.35390919342180066,0.332243971939948,0.37859155223652036,0.44025549876653647,0.27788294408239816,0.45858732032356403,0.3750795190861777,0.31171906840761954,0.287039019798666,0.4109302186416806,0.3472513470780833,0.46615593124077426,0.4647188863398347,0.5338187272747781,0.41365975696700247,0.4272581277802092,0.5160815008381979,0.3339801565109922,0.255019137515471,0.5406271371547212,0.4202511063937751,0.42612468328632885,0.21586366362504994,0.33300007306345275,0.36030462141292635,0.45139019688462867,0.4706432654470539,0.22813878892065492,0.4194918737228904,0.27713357901812996,0.4002845427870279,0.37566006503926036,0.2941930941481613,0.4486265679923475,0.42324167218463815,0.42547428198348203,0.2752731187970669,0.5468518079955385,0.5795943730377069,0.20044384391617975,0.4820131238567304,0.28399253014064946,0.3558138692825946,0.507792585809859,0.3516384041232622,0.33541855219588407,0.1898158302165488,0.30507457192155896,0.4536873742020325,0.40451908570571865,0.5165770076029971,0.4030672772549202,0.24919888126458356,0.4711911893786352,0.369164410369395,0.6522757206510014,0.38553054202744436,0.34132677549083623,0.4416209553514737,0.30879700713180125,0.3822128735211609,0.3889181807934878,0.36391830108766904,0.4130888121640031,0.1963380496519806,0.3888465324879791,0.3723190005966231,0.27372817756951007,0.4136364620505,0.22135898534759105,0.4215659855593226,0.374971220185168,0.4817503949190248,0.37451517576423027,0.24925445644971453,0.21359842013554795,0.49798227888560986,0.5018570680409434,0.3486827997365544,0.40457237448753713,0.331956195332616,0.5336969916683098,0.33226361800425885,0.42604946427717694,0.38952431820384026,0.3270853795629238,0.33571511678533505,0.3315343858961027,0.3654398969463867,0.23671462752874142,0.4457176654261106,0.5032169911469929,0.38632592271313143,0.3783554707355281,0.23160349936835695,0.48887236947894225,0.3209401588232171,0.4395776450613389,0.23788261544672365,0.4343416716322234,0.24436580474199607,0.3896962123374146,0.47787062303316613,0.4061922934231718,0.3882214905227592,0.47531066675356165,0.540575210794738
ABBV,0.3234980120350842,0.27774118650725693,0.44619339804028924,1.0,0.35121438766444374,0.29592749938275215,0.17895496499419053,0.24147509772060252,0.3303781058292434,0.376581191759448,0.3190171885537134,0.22444420571343882,0.18181051362388326,0.3014002363216739,0.2856882897263043,0.30727438198839313,0.25248628124252775,0.31439625069686916,0.32311931952413664,0.31992738090927014,0.2425934111876191,0.22245893550033297,0.18287711661921663,0.2501469175852518,0.18072859090155097,0.22660864042702195,0.3270508139086736,0.3235419400179343,0.2658830592192986,0.2511314208746671,0.38762258933883786,0.3849238168102029,0.4971813991290438,0.3635607010627229,0.29809293717995294,0.31041528074237806,0.32868452336386383,0.22509241373564043,0.2785000095140489,0.29515459068737865,0.26794146657875906,0.28354547326857554,0.27382487859379356,0.38296950953101316,0.27454201269632467,0.27156184815832995,0.2624111528293112,0.2929362521091898,0.3651669989335272,0.2666942048555061,0.2763263087512566,0.31874775491575924,0.17879061660028317,0.22959952383256155,0.23095532901146648,0.3266251242669908,0.33995094393812725,0.21573751522631152,0.3364354938521245,0.3850464385686894,0.22063244456423917,0.2923005556920067,0.29664508876736123,0.30922213555208106,0.37993923408871094,0.2980374874587096,0.2531457640825404,0.26617988054406483,0.27042682627938197,0.3855592214945482,0.42457129846904584,0.2915659140433196,0.29897426681889044,0.33584777348454176,0.2285008593279866,0.20809172522542338,0.26047697571216905,0.20703076799756803,0.2764127420519326,0.28132804561644076,0.15201179325089745,0.29993500530629463,0.35939838787495926,0.23700495510221348,0.20435942493567996,0.29591155453978824,0.2113830265580072,0.3155471816779831,0.29188280324585686,0.3002609084393093,0.3822789524299382,0.32695100484628115,0.2617912852951767,0.22860306185064344,0.34277185237488167,0.2944189105160747,0.26215511175708156,0.3228145479678742,0.15782757740195413,0.34219597305453253,0.2536356535890239,0.3786248569084749,0.3116036110468554,0.3418882898069065,0.3561054271804506,0.34008499121360086,0.15538455364970238,0.3111840230903576,0.23339029581442639,0.31033969515888515,0.29074774539300746,0.2926093155363265,0.3132985934763581,0.1619054766432255,0.28183812885456316,0.20781771762203743,0.27724428346394053,0.34057866143301796,0.2955524773643972,0.3359269423741138,0.2820584496142113,0.2693985332456501,0.24956587302976982,0.20048134224949357,0.2523410339811724,0.3248717542563637,0.28351438622304836,0.35336912739137877,0.35910040736703336,0.26111315292086285,0.2603805478535698,0.20191504005795102,0.2786357346668027,0.241330325886611,0.23999378568975868,0.2177601096223397,0.22295600192227838,0.2117019505029641,0.29716166840979635,0.2276308702691564,0.21789463296524356,0.23798615580997226,0.19012477565659883,0.3063683037513667,0.26723784856894184,0.2766407471390909,0.2541399545333167,0.31206910234553703,0.3202628988854646,0.349418283157271,0.23525817583518502,0.3332998204431241,0.2252328854018951,0.32710025618739275,0.25697319772743216,0.39766146990956647,0.331532711481519,0.11835416107905246,0.2545714391946074,0.23035697765348015,0.21397883960135625,0.17459470794571352,0.22980469582871296,0.28141085366643825,0.2790827986930603,0.2372507340739618,0.28255852083596283,0.2486012402478468,0.2377751564956074,0.27031277304906165,0.20316284189032613,0.26738293888283593,0.21168443151110752,0.29236515359697485,0.25475303460421694,0.32112157819872617,0.31482026895581466,0.28903855848383175,0.24739439158591728,0.28345784692442355,0.3120263081958825,0.3058333265690249,0.16558458978344265,0.22676520459561716,0.35673688160152395,0.29332708601039015,0.23605052374357346,0.22450877498595143,0.28279022809359994,0.2485224110761765,0.2719176386241395,0.2774606265038685,0.24653810997542086,0.16504271684488733,0.18797483759473843,0.340282258431682,0.22693969969711872,0.2445889042368529,0.30565432486461125,0.38367819984092855,0.3215111642256075,0.24415663903321863,0.3295292420269727,0.2480315223615623,0.30057318313481,0.1964397651708376,0.3269514998141613,0.2551243958620071,0.33040168899898553,0.23781577426191858,0.24515704718608436,0.27231800110262117,0.3529062977385385,0.34951257605988456,0.36388427914923466,0.18028620491923428,0.24947842201265474,0.28142690809610016,0.31638797446964156,0.33997020333710426,0.282387064657369,0.3101845479157498,0.3295315872952739,0.36320130613325524,0.2907068311415522,0.3536931866396004,0.32210725319030975,0.23082753826734226,0.30643889700639754,0.3140472346094304,0.24346003094645777,0.30651201767201114,0.29239784768065685,0.3222473528117196,0.3234035853520899,0.3002677186540038,0.3714578943189031,0.23539293759205437,0.2621787462030423,0.2647658350756383,0.31819676207301967,0.3185878248996537,0.4338051777588982,0.30433823427378914,0.3588661565047765,0.26785904121344817,0.2137690819407964,0.2853782437348508,0.27803023399029947,0.24204197440448022,0.2994841789116235,0.29335798739100905,0.2525765094823235,0.13710681602861344,0.28588498881992375,0.36863539961479147,0.27726005219380356,0.2377522423927527,0.2855427272604819,0.26284231533423086,0.4055669214515956,0.3460236254076073,0.23918008946425107,0.27236329838402357,0.31164212313603024,0.3352636994437143,0.30806183977586404,0.2194131330229525,0.29630719798922156,0.25732589958685026,0.2190366416921979,0.29847775373604823,0.20188469566575226,0.26474113860912835,0.39115959093337643,0.2516645819291126,0.2987099164552419,0.36779274673479967,0.146035003204725,0.2630741197346052,0.29222397820051976,0.3824225281654907,0.40653860372640527,0.4319928183187741,0.21380355396053605,0.3518903767639047,0.3373179943210321,0.2714444684581777,0.2843241379803953,0.25417421862206635,0.3484871509908554,0.294439723714201,0.23324964089420056,0.2988243536997776,0.23930258926317555,0.32155942236829643,0.26101595436286823,0.26231271945814616,0.351997581259474,0.3437980022750347,0.20725347921445497,0.30059571357109405,0.3206855478280673,0.2974132713415473,0.24495657646935762,0.1951293050742267,0.06489829870388607,0.25081758456659914,0.24922502285688186,0.23944585966697898,0.26036027140957485,0.3159770131877726,0.31774229593952086,0.3282468897399033,0.26799938455782957,0.1738404875712548,0.23942644117452588,0.2653937742159299,0.22787697516427327,0.23570689215510532,0.23518776732921345,0.2796273637216736,0.220582281854612,0.2565847561098266,0.281992652265742,0.24127103266402888,0.2824276351557419,0.2965446917316321,0.3310142971961117,0.29194958809862315,0.21320215182103158,0.17965856767114105,0.3338562710861304,0.37657934242809743,0.2868286328025921,0.3360569788023154,0.4291857946604275,0.12499132928643969,0.29768903146789705,0.2990429335195993,0.2582110924324044,0.32182485075573225,0.23543834538685557,0.3294991803335061,0.26338912126064223,0.3429939423999932,0.30894681515498695,0.32013621066816567,0.30637414040644617,0.3505502301650551,0.25731392333037767,0.28160797470178295,0.23795572883333133,0.27122702931649034,0.2627775604131242,0.2486620442371829,0.3441376815173507,0.23212687117401273,0.339959255846373,0.32543686621591766,0.2648720466021627,0.2479913832666151,0.3671434770929088,0.2984300955046876,0.35575996917491315,0.29509492810200977,0.32067619304413747,0.28919815247955466,0.24747733353295093,0.3741935633776924,0.2877425004326758,0.21327734235451118,0.33709197202613517,0.2777218704409142,0.23810934441725054,0.2528547713241225,0.21786469458341334,0.2634040661327283,0.2767250311133968,0.33426288545291283,0.24162682989456183,0.28818628043465894,0.18827574919227916,0.25943670614940906,0.24053443990339873,0.21065795539493837,0.2999946799551294,0.28226734209338056,0.32900409356652455,0.25784675636535215,0.35516820416618183,0.3983866377659773,0.1647720914578522,0.2841460399746592,0.2705168351371634,0.29044741067750973,0.32838168926127503,0.1994549388362669,0.2406741157967825,0.25592215091955167,0.22593625750040383,0.3381200308726033,0.33092115109029174,0.3506189697291934,0.26135946232958696,0.1707642719726538,0.3109542680849482,0.3187050531235611,0.3887428163156497,0.2954867543357545,0.2775767402124363,0.3243338462219817,0.2569874567499637,0.3145266232458357,0.27813251969754405,0.3023949243336173,0.24640829888293658,0.20697531639948583,0.31634350198063205,0.2929747205060197,0.2300540470337256,0.31966911370568357,0.2073586983739552,0.2971309492881045,0.2803106313896529,0.4181143967870969,0.33900369003328157,0.29848733117337345,0.21888661510030955,0.3001956399682713,0.3057259226981155,0.26667769449844747,0.37102625720601295,0.30819982806398993,0.37561689415887783,0.2493016966743437,0.3251742872814777,0.24858222724062673,0.2968869078195551,0.2758655135233028,0.23185895465547907,0.24543295413787666,0.15668785935110113,0.352217761348065,0.327913054190982,0.22988129607571395,0.32031556950441414,0.2377617787233534,0.292055765677795,0.24020928651938625,0.2997910388447608,0.28179700524475904,0.29684845849823205,0.22937073320736526,0.24170454901821756,0.31305400154250834,0.2813281804643511,0.24914039165805502,0.36047981820975805,0.38935973438572163
ACN,0.5049229024627128,0.47024382634596124,0.5412710204624007,0.35121438766444374,1.0,0.5831821246605566,0.3681356542061897,0.4457301123623669,0.48032092738168247,0.5678460847844987,0.5230101887300075,0.4108634924861328,0.40545640350427864,0.48489898015670746,0.43543388355053814,0.5605450256678365,0.37905824409598465,0.4549285272794764,0.5701920603645081,0.5678619473346141,0.3288215236792251,0.47289673591200887,0.3631058927989183,0.37255466511208857,0.3493973863074965,0.3405202700834088,0.5379883264633064,0.49845497175625686,0.49928492301129535,0.4015197465528602,0.6256980198418225,0.6163799038469349,0.40469401856525417,0.6470873460160005,0.5533446215291117,0.6165877671688216,0.5470098045569896,0.3258489268968835,0.5482325253783467,0.5310860159527873,0.5078978590735909,0.4741192320329004,0.4113216420452856,0.5736344754186715,0.4415213955653788,0.3818917158453672,0.3824133521716823,0.5603358231707031,0.6426227817079315,0.39061045914919484,0.4598227462715542,0.5379342033457096,0.3535473985673477,0.34393560392768147,0.4398378191537264,0.5237177956641892,0.512467506402887,0.33786369879450234,0.4052071899050262,0.4270956506271261,0.3787417169421547,0.4290150824590214,0.45056372085564916,0.2685820506865704,0.6496341414538588,0.5565514649964236,0.45093806666993935,0.465791225646557,0.4260156562149858,0.5075562873481979,0.3396661118931582,0.516848740447201,0.6094242209823679,0.5720890830623688,0.40068443476943244,0.31812540330866607,0.43725632656616115,0.34448065418302803,0.5806635747126377,0.46301916520833825,0.18598782155053592,0.5243468854792613,0.35409566897168665,0.4248903254214373,0.4137169493636663,0.47314816803223175,0.3514163278350352,0.5653536256580194,0.5785975031236272,0.5147949493091386,0.3812812080496176,0.35869912056970077,0.4085425536055543,0.32204876507130836,0.5151167708271991,0.45717823733806656,0.36759510951741,0.4370668578187273,0.3698853684386645,0.4912405611982831,0.32937034624326006,0.366713122788923,0.4942993154660183,0.5869359394188867,0.576793708582238,0.5425228030551285,0.22193979331712946,0.44688031097965486,0.34929950140388016,0.47267020413670735,0.640409895450566,0.438863667455636,0.4798090706752384,0.26656668275006173,0.36203974546978435,0.2836190426579648,0.4538092762659055,0.4932139490351357,0.5423130816273836,0.5505313737054525,0.5147150605205034,0.49702991168685495,0.4798035022964049,0.22235382922803346,0.4511427165074854,0.5127984759901267,0.46406764657695065,0.3686194063072958,0.5580136010472322,0.45496766499748786,0.30441370398711126,0.37424845856892924,0.44744402771320596,0.4027445289509018,0.3544665110557593,0.32718534204805233,0.3149788273443411,0.4147519283890839,0.5024597534917795,0.28762063270634597,0.3099073102847922,0.3484223376023064,0.2974326235862207,0.5639658723929982,0.45996108096368166,0.4172135037655295,0.35892785250123943,0.499938840240169,0.5010676702947487,0.5724511173649842,0.4016042916390715,0.6155915620947898,0.33266545154532745,0.44547294228578077,0.3489557022925148,0.4063851255784631,0.542889552243476,0.2674434412264731,0.391096932578832,0.3337663925095957,0.48369325141109837,0.18302093921036178,0.5276070643792867,0.4595794386104303,0.4551393018966885,0.48038679034868753,0.4184440137399626,0.3925254704444603,0.36317825488437877,0.40879638167452387,0.39663005568129134,0.4870307421508426,0.39722329501333303,0.3898911295202778,0.5025333343636492,0.5771555545628704,0.5586643104530976,0.5042504085556128,0.42991748272861446,0.4700471937362182,0.5383371513119775,0.5001221562418038,0.33129809083830863,0.3339247791038246,0.6139194502911156,0.44378779069857777,0.432399358528894,0.4719336166816674,0.5261886885398145,0.38226638301107085,0.48613833922316285,0.5782134406937822,0.4003554313926772,0.2719444577200292,0.4225127605049443,0.5002269001270249,0.2509802596457715,0.468343801254797,0.505098667823585,0.32931607161981924,0.5709251667768869,0.37780035123056005,0.5407799425914952,0.37942243646270335,0.4776928810016569,0.38841244380597173,0.42448675888144966,0.40601421713129443,0.42372693262337446,0.35158161471431976,0.36445701381800744,0.4543224050709682,0.4392146477371494,0.5793797737097527,0.6068752558159894,0.2801347020646094,0.4320468250901219,0.507945905475763,0.5134899075395266,0.3368226436403226,0.4654103062850903,0.3830157945723317,0.550308665690649,0.5917021200556672,0.48346707204049716,0.5969116074601626,0.28582396123263154,0.32761276628200964,0.4880125438573144,0.5153456204189223,0.44972217337828985,0.4558917560585245,0.5101223578090058,0.6434140901658936,0.5484035916464862,0.5262802958082343,0.5717743620899087,0.41435639114585004,0.45018456434658255,0.4776472284938429,0.5232240184940609,0.49869944891383244,0.4509603168791306,0.5059735981967955,0.5490276545437438,0.42277165395364763,0.25709549255081293,0.4639424899556537,0.35037587103782236,0.41529426132960484,0.3708391031543236,0.5306182306491936,0.5200281660570171,0.15788626133220413,0.402450330903474,0.4855279867803431,0.5260781945685633,0.385083636347644,0.4215028444577788,0.45631782390635556,0.3325760332747437,0.5985017498980592,0.4342986498429745,0.4817856493467495,0.39336363701216187,0.559826377210987,0.5106708732477371,0.4022755218076928,0.45538679276570493,0.4407675130164656,0.31517596172732754,0.380673762527081,0.3643404324455319,0.4601905781706332,0.6167683828957824,0.46055334519945307,0.5153286000577859,0.6435264184500483,0.3681971420109041,0.3774166104387783,0.4932032821457023,0.35334661722947913,0.5088911384970508,0.3706700788910022,0.46600838115326554,0.5274182471212435,0.56774823475581,0.47268027112977956,0.5545976412442313,0.4120343497172737,0.6476741240635999,0.468047824532718,0.42839859048439144,0.31219052792148705,0.32600339513684606,0.4883141519538472,0.5510662943031162,0.4304298223531746,0.6431773332870282,0.5618959017369769,0.33775073727161137,0.557796088065607,0.6003625477053988,0.5639635925893467,0.4721718557565135,0.35594058802535117,0.13034632414244657,0.48868445353626394,0.4916736541087769,0.41343182464190287,0.3744014678287824,0.5545805906483975,0.5277057415606401,0.5231537440292027,0.3712514039660615,0.3870924582206828,0.3276989407798268,0.4753609011395238,0.48319516673754065,0.43671164187507816,0.5146091462104591,0.4037796145908059,0.32229084007578873,0.48722510921596074,0.47884751060586345,0.4828055150490032,0.39304984807793125,0.52132307917547,0.4852110485104145,0.4520364729710332,0.3634445220010061,0.325249923683247,0.572896460140699,0.6449333235045316,0.5433176244556369,0.4949455203603777,0.376623950144388,0.20357598115861997,0.3981801058849335,0.39155214502308894,0.3651634986466807,0.540099803944152,0.4841803066445352,0.5616283358578329,0.4044451849468318,0.5487610377903546,0.44474261171163787,0.4096818707347674,0.535633738250319,0.539634031867999,0.38507396426509327,0.512220159830887,0.4105944902769084,0.4580257213325576,0.42975902791223447,0.4722807154790843,0.4254424868405813,0.39796272303682617,0.5412583292571973,0.49454812076248733,0.41095999443580916,0.431184651838273,0.3056906450645225,0.484802291529945,0.5353931963138558,0.4270065057852641,0.5010000248987633,0.5364122939940411,0.4247997331781611,0.6054232493132236,0.4500348166163341,0.40857074434081536,0.6317822196445975,0.5304026127471806,0.44727564168955447,0.37004811183925257,0.40245258193783595,0.40078699672031715,0.5160166647554336,0.519755639719326,0.4101894979203072,0.499707053900774,0.2130439322610659,0.5056816207440559,0.362667363984626,0.38908486758849714,0.5427701520331908,0.5241136511868102,0.5107608095244612,0.4411449616211841,0.5177551109323822,0.5877316064745122,0.2949241808919329,0.5859003852032705,0.4437215327586508,0.39063107494889904,0.6131976951629263,0.3560007478382285,0.4076576948018902,0.32802614748578474,0.35588961258078217,0.6095034837581254,0.5299046343360381,0.4681741841186594,0.5047165729982809,0.33093053051991794,0.5880441711497426,0.5319909280717451,0.5469261533669503,0.4860657176933243,0.42492554984043296,0.5336722804257436,0.49553699626917136,0.4716627387990523,0.528130474080622,0.5063079625874856,0.5024085379353024,0.3042832138641755,0.5116007168912218,0.46271178242137073,0.3734206652238671,0.5220091153409294,0.36155971454258334,0.47345796730872775,0.467604632760098,0.44780929996651303,0.42642496895234383,0.361980955960753,0.3608594331456344,0.563154036315906,0.569798462597626,0.3317443935315322,0.3356005767318562,0.3271616618157816,0.6410860585147203,0.4347661037042221,0.4838066177343198,0.44272431834581694,0.4612642015622558,0.3551478456208791,0.3323702070922992,0.5054768461885377,0.29697966860278,0.4996451193714492,0.4986602673811748,0.33353120693101396,0.49231171296708676,0.40626088966748325,0.46579816398487606,0.4369149664926673,0.5349960362863193,0.32472637608845,0.5164554300830431,0.3600592823258869,0.3620423920633775,0.5659017443867798,0.4703448604802396,0.4641461610084469,0.4732186218044991,0.5362733978545755
ADBE,0.3390573454508895,0.37111091268030105,0.46399652935097346,0.29592749938275215,0.5831821246605566,1.0,0.43102177917453544,0.3251218998485499,0.312608390408858,0.5067924163848093,0.40317209361338063,0.41290061879403284,0.3284510817901587,0.3726302228457288,0.42489600685009304,0.4270139795313803,0.22346452892728574,0.27846426001136115,0.61417607299394,0.6108034731947839,0.1843036668225794,0.5755371825365903,0.2418585003276583,0.25372794235180113,0.256140456734151,0.21897831019030461,0.3798687525279162,0.31353877731218555,0.4028225952236151,0.30499114195907123,0.4538448545049335,0.46150141694389796,0.36179062426601505,0.5306397176031538,0.5482560677786749,0.6612877695215063,0.3987349977232658,0.21088612046120275,0.565691963540569,0.5456259870693995,0.39611246956578483,0.29844681840146836,0.2617224865391706,0.4397326160181441,0.2827254527726531,0.19892054195563685,0.22359996437544788,0.6360399813105044,0.5071465619463328,0.2807475677200647,0.30198815098763354,0.3653475534003716,0.3510543598858774,0.20597953471986255,0.3283059214879913,0.3492547058138989,0.3369667659384111,0.24606917532952186,0.32620825153488947,0.34950512549639934,0.31730793880447866,0.4084155409647281,0.4509981334568383,0.2940317048833274,0.5137937316053491,0.4893316821295582,0.3428208776658275,0.41512182428144023,0.30544978261298705,0.4200289455935071,0.23320984198190398,0.5271690450844861,0.49365786846828014,0.42434027187486184,0.3218849286337916,0.20917910867445266,0.2751459382757838,0.28238460497687334,0.6516004309472069,0.3182129436755809,0.10564621293711858,0.34512394753690206,0.2375779267058751,0.3300780312501541,0.3031053958376888,0.3097687001470988,0.26777334653402785,0.3905652879177669,0.48263762405513044,0.3683415914704093,0.23935245603724375,0.30913293330917724,0.29035920184743935,0.20994353910849725,0.4717917785616834,0.3351050194872315,0.3494586391289517,0.26336766510624077,0.36735787958213706,0.3012357247924288,0.2385122290883413,0.2872294487385717,0.2881364080726365,0.4800601768835966,0.49230731857407545,0.3712591468026291,0.1719504254381583,0.30645428699859506,0.21534890265704304,0.31393902417683545,0.46834999700225105,0.307952278105212,0.3883812697135305,0.14074352412067334,0.24815565235325754,0.14460464238914375,0.3049155537555006,0.4427348293778954,0.5062549196129994,0.4259927506753969,0.42828666029055645,0.4869307195744586,0.45549623668586814,0.1629221684188483,0.3706652023019602,0.38784373333516925,0.28256962869165225,0.22295188273172925,0.5102458746494595,0.31013255861396793,0.2294872659297913,0.349666985057648,0.3018556621120387,0.29819731617218936,0.2457575251307593,0.38302678503516563,0.2159408903628039,0.3775851979868474,0.35391790890926,0.24447782737983328,0.24728721361332304,0.19693943107725354,0.32000739140569906,0.3854511655634823,0.3869286896114769,0.23871562983523953,0.21491492837334375,0.33505658993934656,0.34112564304629495,0.39301565889843443,0.3869538202441982,0.42600119713547124,0.20801597551950282,0.40736418322560886,0.41552084078081625,0.31386827611750445,0.34941515337201606,0.2758053023765939,0.25394502411837055,0.23276350833413448,0.4450516766626052,0.14148911812828177,0.43392658852054333,0.29991060352608934,0.31728185389540986,0.4007725384004344,0.24422873518721122,0.2339948348282048,0.2162551102259052,0.290993035477762,0.34304521132229293,0.40833164267143857,0.27812736919617,0.2214941584813827,0.45793928037263,0.46583997858815246,0.5584326175553826,0.41017859778184773,0.24895191962229835,0.4127510440292076,0.456172373152636,0.30812191629779756,0.3028767726299619,0.2624301282525984,0.5064472623506704,0.3405886348756238,0.28508549297567887,0.5343313750693136,0.355327874895059,0.2782106191279462,0.40441467336188763,0.45611936617984383,0.2880995005542851,0.2772684698213264,0.39286925729985467,0.33684463655658675,0.13965818183052747,0.30505991781530095,0.2998286286404103,0.28836973414308564,0.4999588808720809,0.23939488919306268,0.3977503882944851,0.24711232140116224,0.2876328508604478,0.3331197325636678,0.30739726722214994,0.2878625006247808,0.2887192824315622,0.23449903534067318,0.23543670617236603,0.3803217833501505,0.4059398647776492,0.4914489321582742,0.4217735263491995,0.16482429963087825,0.3101985146844861,0.37606835614128503,0.36644395401238156,0.25652952466301343,0.2654298213799022,0.24286871882481262,0.3641520569760671,0.4384083740060679,0.5052550773012826,0.4171635662977144,0.3120486948638505,0.3517870033307926,0.47283779882846805,0.43215607166217185,0.3407410255304265,0.3059892090683477,0.3410417170563969,0.6758795661694323,0.5163680427166835,0.37712168535487717,0.5012710361012679,0.3035075647868454,0.3568537790513371,0.42455008778461084,0.4340594871073731,0.3476304987026913,0.30736918214106435,0.34253395370241146,0.35940748550456,0.3461112781642448,0.12462544150210972,0.289856072260138,0.23072188315096168,0.24396860610500407,0.2501600386653953,0.4701749702520988,0.5364828233340697,0.14648198758648256,0.30774379270964447,0.3801673877397656,0.5377826892841091,0.33623597724696097,0.30372592940432425,0.36345368871913664,0.2829182487103371,0.4367441278933557,0.3827916233502993,0.31180727966119864,0.29047327369713344,0.33563151521034607,0.4452937012200359,0.4151940447156237,0.28368311888074044,0.2292980472425601,0.21621598867099534,0.28368871220448405,0.34942587576183026,0.3506195400648073,0.4755475356033758,0.3412816597619293,0.4038742636366079,0.5723163581401632,0.40515857150441353,0.26724144292894786,0.36037098911345855,0.23736289192671298,0.38125365978181996,0.26057723084950474,0.537942685328117,0.3379940201793859,0.4812305384530349,0.3892649386259497,0.5365056974011203,0.4462118240319353,0.7015954111547801,0.336619727176643,0.2999159568230068,0.2895286626207487,0.18063647105976208,0.3592112609425768,0.5788051211501946,0.3887584704901881,0.5648189387289818,0.40496482510053755,0.21396320324863866,0.43645428020007,0.5850537258586523,0.45205648058189135,0.3882031997173512,0.4590692853784298,0.08626037075601996,0.37285262296949884,0.36985725100521066,0.3045957945481571,0.25060061929266203,0.4450014639228951,0.35794790056836845,0.37282696481910343,0.2712053298883324,0.2753244945390291,0.2557054215514459,0.30626254843326634,0.5733644152065429,0.34753663268220897,0.465715988572227,0.3232775848239654,0.2149169480692605,0.43806069940219955,0.29407286661692256,0.46957974890355836,0.26905485296764686,0.48219770779640236,0.3496428981784949,0.29944676993221403,0.45119810351970135,0.2297278663149161,0.4037964401988786,0.49364430301104545,0.4008575801774771,0.38041728107753653,0.26833702773010126,0.16271404197519077,0.26621150535267757,0.25349905234406744,0.22218857760481095,0.3393560727569686,0.4481398431234187,0.38068830348610966,0.233375538403558,0.33874387190426636,0.3075304935672197,0.31372883671848784,0.4326254911952032,0.3478993486537457,0.22552970868973898,0.5437583028300634,0.2971001060261697,0.35723462099258607,0.31812424190762184,0.4891954451602229,0.3229902191805627,0.2909226840942263,0.3888607410606413,0.3349623371904803,0.28241305790885013,0.26516890803275134,0.3361710764289668,0.29673585539667086,0.36024209241508787,0.3971014577160198,0.4711410265312024,0.4148597180606712,0.38012723349236366,0.490185565588201,0.3418356362781036,0.3115473283320312,0.550911460660141,0.6660999272342518,0.3834968168154554,0.20173968737745,0.34609791628059067,0.26198086410020144,0.662404611638704,0.4204481859772821,0.25727944851717777,0.49635715232270433,0.10203664260875238,0.333062801099879,0.22105957053607578,0.2795068157190261,0.39448770867540284,0.4553996078284291,0.3757257035688466,0.27817146540152604,0.4054328879058786,0.46329519718419004,0.2653529487549593,0.6742753101666618,0.28857844430762686,0.39117921980882253,0.5089474009100275,0.44582126076522816,0.30362707652512166,0.24117231708665493,0.2817402590701799,0.48441255152276647,0.4278037813209263,0.3977817702329667,0.514048327211182,0.39412993000791385,0.5551355982584407,0.36971560820391264,0.5002491150547007,0.3677767214373768,0.361619345994871,0.4023622264370554,0.3907357441739041,0.29134687626943606,0.4605307421268228,0.2987166017530547,0.5656122526261895,0.21026413059520058,0.3057893536795822,0.30907323257868025,0.29429149130503507,0.36658776521410325,0.25061534761763304,0.3981670961403349,0.35891428369915773,0.35993079977056003,0.2980614929778281,0.2446656139698735,0.2535159742859769,0.5674914644500285,0.49933281150374975,0.17748626440467732,0.350865243994975,0.23047091699888547,0.5811509941242866,0.33796050139644557,0.289829686554376,0.31832309515593904,0.32097567186557246,0.24269945018794173,0.27466997905288715,0.39226188168570303,0.20027853617307775,0.32981835565507234,0.4153425909673875,0.1916705443315339,0.3032486431515922,0.27734996797988715,0.4428651868390391,0.3906757732215634,0.4031292896188545,0.24610140248892637,0.37659176806397143,0.3107514237736257,0.25165174440649846,0.4222363509827926,0.37835083833213934,0.41624445721768555,0.3452208644682265,0.46683841359923955
AMD,0.24913895385784388,0.29960023415116777,0.3121746499677053,0.17895496499419053,0.3681356542061897,0.43102177917453544,1.0,0.22801470537637059,0.2203992156012809,0.3616415150012495,0.2852815478948887,0.26305437608359583,0.31926242175018066,0.2566857018910775,0.35183302055108084,0.3020373699722155,0.11097278692524187,0.19546432420454615,0.3832348588807176,0.3813668689899367,0.10885274184903707,0.4019395920476555,0.1680896909921508,0.1265929302167301,0.22041054432477397,0.1111129343675165,0.2919380595664685,0.24073082240777638,0.24009596634835978,0.16202738227402202,0.3515518415539956,0.345135835785533,0.20663974291154763,0.4198553351923954,0.48402102300757943,0.44795531532421723,0.2555630491991843,0.1992789848413828,0.4118333246550263,0.5038053689419487,0.3431228793482045,0.22278925968924507,0.24359413395094115,0.28566666348769304,0.20284830071356158,0.16227971097386812,0.12865382602830475,0.4252898967298083,0.3193763958757375,0.1882737253666077,0.18914309695881024,0.29942708611184576,0.2556358055293986,0.1903642583736916,0.26230968931239484,0.29032389535013275,0.27933550396044515,0.20731760967565185,0.222959780350747,0.23096142539059925,0.2697802231384557,0.3045248251139846,0.30519541911135484,0.18526205008573118,0.37273249101784345,0.3686756037197305,0.26524707026364486,0.3118870417726344,0.3165607420709658,0.2816515514046105,0.14755529568931372,0.43671829728638645,0.3304258763685524,0.2967696632830407,0.28670674467164275,0.16689628668715698,0.20122212449434812,0.2050034107704891,0.47018434149919486,0.20651500159684413,0.06373329681868899,0.2822400835167818,0.18544592639468552,0.2781007928338781,0.265578159709086,0.28036233704343033,0.13804057758276608,0.31479847193240856,0.38226021332614185,0.33097754970170745,0.1727359973148575,0.21446576689214733,0.16789159937341852,0.19858343851195986,0.3441346712031671,0.279764228203689,0.23068615263785908,0.2301327221990205,0.2828075777404786,0.18934649866387737,0.12643478545505948,0.20730471428298153,0.2017500442149966,0.3338104368792104,0.34369270438720007,0.30353682600765053,0.10765565145340322,0.1868315636999964,0.0984444176947768,0.1772520963497737,0.3089319964476978,0.1770772116374743,0.26355902954654675,0.10302286010575289,0.22912756014020277,0.05184906778351676,0.2034140462949806,0.3014924360364615,0.3746447056598951,0.34536908414131634,0.3236435457052488,0.35122938088637506,0.28255268738240275,0.15608020148620425,0.2240781016991581,0.30227456659053914,0.26411489808942495,0.1881768815296795,0.34450669377554716,0.2287642766364547,0.17670987794299117,0.27113604447542416,0.26552917766664497,0.23308156441729844,0.23580363201774396,0.2629107474441284,0.19129849078598732,0.254155652052317,0.27209806321390956,0.1531464376826961,0.1608178893782202,0.08945672912264852,0.20721576574818099,0.31816163797968267,0.3034449535724589,0.1214827507857915,0.10739873041211499,0.2867201148326565,0.30605731562445926,0.33443996102571627,0.2959679332582894,0.3243223572140003,0.13529295149555343,0.3089543958989338,0.272959316800113,0.2216787981389162,0.30864083132462117,0.2514153635284339,0.13451293578855317,0.20609397002971155,0.3236492010462589,0.1646898360537444,0.3187322786020424,0.190393809989667,0.18493623415303626,0.29348523529404935,0.19810154375351555,0.11388726732699087,0.111150271357121,0.1779989906280773,0.2593928144161892,0.31663547345079074,0.16576195540294503,0.19061919060846824,0.35296456064009274,0.3019740486800274,0.3724672146358749,0.3014909501899195,0.16265282171795828,0.3146759622445427,0.2655545561478187,0.2500977882718939,0.25133634626350254,0.1377275477395905,0.30694664821633677,0.2777465603645889,0.267755385866564,0.35297913023586835,0.3089119816184045,0.2955635278101093,0.31498508234264216,0.29996307335759254,0.2406771500859774,0.20790888380344796,0.32228216543064814,0.21679442330138513,0.07100118838068581,0.281976761290438,0.23289394313693937,0.1665180906540427,0.31139761663269017,0.16763387816831218,0.3165168607794103,0.22306745283879034,0.2033122896880737,0.24903010388966487,0.2293824060422377,0.19131186813714504,0.19384940952844895,0.12708428824233298,0.23068665158360507,0.2938160370836396,0.2799248392965145,0.3410235532493704,0.3007138540643499,0.0874067200365307,0.2493841726823344,0.34849100189996174,0.3097068707650598,0.14293954678381593,0.2326356506434663,0.16199952518907934,0.2848546533584674,0.3098526974039011,0.338065036502421,0.31608209725131986,0.21686813595033408,0.29189816118447726,0.38693698831741297,0.2781085789325436,0.2494792185713673,0.23048361363893619,0.2579650902232705,0.4203124259383517,0.3667633657910357,0.30094506490757783,0.34468743282718056,0.23200347633255028,0.2774475766470664,0.3455666753696134,0.2742942863190736,0.2955527267523758,0.16409213494098765,0.2875455138468321,0.27986786761968424,0.2968292055425939,0.05140658711688038,0.24724076170457843,0.11128251612703115,0.15970203012997242,0.22873159714323574,0.38894005081863714,0.47474099799483693,0.07555517948019946,0.18407820336973507,0.2512949220803083,0.49674869512370057,0.2847051813799043,0.23306447830177812,0.2872789554594478,0.16813864914714086,0.3188896494614822,0.2876366836922914,0.23488094122576644,0.16151620531398947,0.242084689613555,0.2998817465962097,0.2877524097058955,0.2469122255164623,0.20310260742113562,0.20439215932511293,0.22424784083873153,0.22492606185589314,0.2797222066499372,0.3013298747136346,0.2588733683991301,0.3323177270564085,0.38468929794023815,0.2916808713545586,0.14117218178261542,0.22683922342630108,0.15994108534104334,0.24401433758802082,0.151295294881985,0.34858904623973014,0.26319141110534955,0.34679273457509224,0.31193035653636814,0.5000028182945601,0.46746856682912785,0.4221331575023663,0.2049416016732645,0.23385010337699885,0.18975934777638656,0.14175761123152472,0.24372061686679874,0.5258611395164499,0.22336115110864135,0.37643872977256637,0.33208050902773495,0.23620763967221337,0.326616438120767,0.3912555949803813,0.29134354926768985,0.33496704525621485,0.3271716745535943,0.10653705959937634,0.28898372030540553,0.2827754060207368,0.17827411640184485,0.12299021058759334,0.35374524728553514,0.30683107001342524,0.2891380317576697,0.15038588825840693,0.2542805876226362,0.23358048586317923,0.2658255354215705,0.5869015163135102,0.251025248012143,0.41768371921318687,0.2067678874257187,0.1813806897967426,0.34065295884953123,0.23126995497355038,0.45911631781257234,0.23222109582976172,0.3322878770669276,0.28741064806865735,0.2332530419671698,0.2975042706691667,0.18299472260052116,0.33095591105223554,0.32038322633209804,0.32832586787691354,0.20585981791181054,0.17819592367699938,0.08376035947006918,0.16230842119981892,0.20195099406383907,0.11408532247133683,0.2591690255430784,0.312565255543273,0.29589534275108553,0.15045452643336776,0.2887607843424759,0.1798727766624264,0.1926223553608587,0.3037329359928596,0.27618865746018706,0.11896624405549679,0.3881552138941511,0.1592757267308965,0.28435020346927814,0.28638781980934436,0.4241738979012421,0.22209680245071164,0.22307282375278722,0.32115817990400025,0.23085048816775292,0.1642905189582959,0.16310470165035473,0.21612445123403448,0.2649859925199601,0.2307884846952278,0.25866447727985376,0.33906827602962597,0.32359594186402757,0.26040645847458305,0.3320709697379395,0.23920930657009187,0.27544297139003054,0.37288059784542,0.3889998416701418,0.24468185527343514,0.1985238298643462,0.3216922301973223,0.1606002673850969,0.4073888019240428,0.30086565879732774,0.1734962091734629,0.42064548287811804,0.06976415145280998,0.273571098660522,0.10645355389946214,0.22037145851724682,0.313050759988354,0.3051610642523098,0.3114859989911549,0.2653889472720248,0.30197279606567673,0.32210341432887196,0.26459937116420623,0.48646695099188875,0.19169437481567742,0.27805631863451563,0.36182354275920114,0.2998998081193581,0.25089111279605053,0.21977913918217362,0.22933316363456907,0.403742886757248,0.3273864904922878,0.26088915961896897,0.475798957694302,0.3370778721297115,0.49073172952637,0.2869483406680749,0.3375096055269612,0.23599390843798698,0.24453044794333983,0.32507354302250735,0.2793131635452005,0.19129747510265652,0.3575961851871259,0.23837157831850836,0.34672426630133674,0.13880519301014393,0.23221916023563705,0.19898771883617777,0.22122769844693474,0.27893002100716385,0.20558244317000562,0.30788097816493637,0.3366722549947615,0.23805625253767534,0.20272159428529027,0.21241238480145763,0.16035733596899093,0.37622824573210867,0.29930561280725915,0.13356783072999845,0.23863284753201378,0.20413361476595138,0.3693439415080979,0.2622450745259406,0.20045153068404625,0.23674614257220644,0.2613441484489338,0.16274080035136593,0.16023499217124001,0.2833616885724156,0.2043503569595524,0.19950287455030993,0.28573238248825406,0.08834580416462298,0.23938124205419717,0.17429793899311702,0.32382297703844504,0.36185017738802305,0.3057548574094244,0.21231853309067406,0.2669776687764901,0.277609136641267,0.11480133715408805,0.31633512682028403,0.2664959546932352,0.36399788321577903,0.25737458176402384,0.30562443609929796
AES,0.36483577344627915,0.35077366760521406,0.3205022101785061,0.24147509772060252,0.4457301123623669,0.3251218998485499,0.22801470537637059,1.0,0.4829421169314622,0.3904205777225306,0.42329881654938634,0.20506220171078085,0.372168239035939,0.4591781859950926,0.3483945535525953,0.41050248478622636,0.48349318275724507,0.41726726887833654,0.3309305715827995,0.3272102978695205,0.2794515309006509,0.24097863907066192,0.37700291740669606,0.47340469882368397,0.32325607467801,0.45036980008780286,0.4722364538451998,0.4589232975386553,0.4170853876604803,0.4441684131921182,0.4879837398258223,0.4504353786604583,0.2681148935923326,0.49995019910624267,0.4070985569529081,0.38678999942758846,0.38291071928543485,0.3774131756710611,0.32067466081491575,0.36878425343864873,0.4682166994196834,0.41732727867953034,0.41191634658394166,0.4458611739566577,0.4099789120597603,0.33432469924770636,0.43908935002883087,0.34889187146420864,0.4294786531229181,0.2758582562744075,0.4564701130047918,0.4114676416128373,0.26788934596103414,0.38091292166039303,0.361523739109932,0.4305872891400433,0.4220988861768528,0.3292675568401644,0.28737396173223717,0.29881075743183616,0.30987192412164827,0.26539862977309564,0.3368125615576978,0.1937460303734596,0.45240983814064145,0.4393417262726283,0.4392746011195573,0.3750284039419533,0.36279572964778206,0.38481901021429854,0.2593147420062941,0.3814334933147126,0.3427656727615742,0.40434559951337995,0.3658478830888078,0.38841928214347493,0.4979951454180538,0.27973705924963077,0.34521309120935695,0.4599125736754502,0.16506887219630034,0.46760659363659374,0.27957285905128354,0.38264703909463726,0.4063759170341603,0.4006875363405327,0.2636212191210705,0.46825640705274435,0.4045214975371201,0.4963939724610339,0.25554093345126555,0.28476190300749443,0.5841894141937577,0.3401030592525427,0.3725022734261635,0.37439590279637674,0.26847138203829,0.46212775486067176,0.27532901020008654,0.4453717464248592,0.23079213144800953,0.3229570899999086,0.38414274065560844,0.47698440174090145,0.34803148191854816,0.4761900346982882,0.16510262161645356,0.3319863507668011,0.4534393800705742,0.4127222096645371,0.4047245625413632,0.3348653113195631,0.34952045908596835,0.2416657373801958,0.4165505895064238,0.36428966112437716,0.3706142566785014,0.3995532331759626,0.3731049235660217,0.4140788671818721,0.39206779676994913,0.3467745617216956,0.2828909835652184,0.2423883393318367,0.4022061002997832,0.41228341204593155,0.3951356831990032,0.2977721219667223,0.3810685696502757,0.4142834009945584,0.2375592228784001,0.3390413066746723,0.42072484121416975,0.39644124340427855,0.39264159055674763,0.2366753115356235,0.36461591398471466,0.32832128013445055,0.47390937948722195,0.2238737197944136,0.2897284952748404,0.44868272771995604,0.21769368280126428,0.49745415862763503,0.41247764982602364,0.5944243029596964,0.4741808670232191,0.4389544760164131,0.4609993809329672,0.4484908696758308,0.2523010222628334,0.44803336993274995,0.461347444003797,0.30213813576940945,0.21271501538086854,0.3308180096279404,0.4890642399022703,0.26827806166332246,0.5395755517552316,0.37879265779322485,0.2815425681437549,0.21784022104865475,0.3778897037701922,0.4492497156447344,0.4529377540833288,0.36696848084940076,0.38371172092815375,0.44197403103802124,0.4285811699651819,0.5608650090544011,0.3701257376944707,0.31828774953308175,0.3485747815223652,0.4260917165006972,0.3415556759098747,0.3698643024818602,0.40829839882959823,0.312387092918358,0.501973657391971,0.39258138668562215,0.382164058442593,0.481958307643212,0.32640478051861,0.458781174888633,0.4410181589543668,0.43155046082870996,0.4023865237057771,0.29209201369618176,0.42426743774931686,0.3949719961990664,0.3557276682444921,0.3911148779197196,0.3683681473583503,0.18870684856265105,0.3486270978756579,0.43130628336650295,0.19598847820848656,0.44510470130744695,0.38805216402784154,0.2056890435486218,0.4016963322554304,0.3250657680665581,0.46132225789445624,0.4420018652236854,0.4634856044357143,0.33329035392103434,0.4224459744126224,0.5020871039597176,0.3475099084451105,0.35085527843502395,0.38459809519688065,0.42263841131126617,0.3562382660251187,0.4374610134577531,0.4898570354352806,0.1967156339191555,0.4689513003843212,0.42194256685045506,0.4340987338122556,0.2603972301323502,0.42230969247484845,0.2983503240152784,0.39064772805451375,0.4588610433785383,0.2916175725863208,0.43529528506338594,0.1813324534989389,0.26835105121558445,0.35332632659917773,0.3781887523999795,0.3899294088578449,0.45602500214411357,0.4172521638848607,0.37830010928709246,0.3572205349668827,0.4719781711045137,0.4307634240446755,0.38777707219821256,0.3592524318969984,0.4070384303189449,0.2851543352303934,0.36413237170175417,0.2750491262327812,0.4271759486526623,0.46779186876372536,0.2965821877371181,0.18630965596632415,0.46202461185437205,0.2704891477301254,0.49496193280490514,0.5090180937975197,0.43732077508623096,0.3550147522988665,0.08194013743138694,0.35045738620724265,0.4206549424764307,0.3601731627664396,0.3798312529369282,0.3088096403932423,0.4130887579456896,0.2136305880575862,0.4409188773321416,0.39429882852269293,0.39577336597972307,0.29868126575814474,0.49112917983035226,0.3996953691384031,0.2865101042553687,0.4574541584654293,0.40295430394450277,0.36253198096755396,0.428360529917813,0.21952790598295427,0.4236423997359494,0.43863550610775953,0.40824332998516394,0.3781150114696091,0.39938017975009216,0.265527635783737,0.2915227486193265,0.4289732291263107,0.2625465237346737,0.4350442750610516,0.2883717285779942,0.24774092649462914,0.44313050001746584,0.378917406834359,0.4794155633943192,0.44021917083682716,0.3180193591256598,0.36743213930309065,0.4491342367780858,0.41488925921532555,0.24221523924890964,0.32689317496838827,0.38333127310647996,0.36958535768296447,0.2946164342644079,0.4571961192703794,0.4551955679293228,0.433430908743236,0.3845676505265966,0.41097486085214574,0.37348489126623813,0.3224893707337125,0.17677346289717177,0.21741588680377283,0.3942532746291329,0.4020698346858507,0.5176003018274142,0.5019033593996011,0.4241327167312322,0.43274703680228177,0.4321285871746404,0.26845146338543113,0.3790126807233588,0.4873292717470593,0.38596046032355974,0.27461577444534363,0.3623488927076047,0.39999024159615654,0.2753733235069612,0.3819878183830411,0.3295710425145537,0.3910916359737014,0.4172615774791345,0.5183428361920324,0.30290523407216186,0.3773177508903634,0.39122123216622334,0.2508258503477248,0.32221944419704635,0.5030900105306683,0.40497406911180256,0.43445556967834686,0.3775040640270309,0.2505757656150327,0.25882214730627096,0.36690115222938724,0.40873697877117654,0.5237116627920658,0.48167675338840454,0.325704335480894,0.46127421128297325,0.5414897653132233,0.4810048572955152,0.3370596943104768,0.30026246973116183,0.4791684323711566,0.4640496368475028,0.5660773858708202,0.36366085650170865,0.35043225810696715,0.42722775706710503,0.41893591902533656,0.3433513705347545,0.3301723977767947,0.3321752650579621,0.4269579625391096,0.4789090763534322,0.4739789633917352,0.49632287010428205,0.15810314937816095,0.46422711253257154,0.42507084408677304,0.2694068200426332,0.35856264400896654,0.4356757909341622,0.3008556190749497,0.40978846420758963,0.3901462999219666,0.4079023080224108,0.4535729221298998,0.30844918666143545,0.3773342940941243,0.41743305177350604,0.2985123099576583,0.5254601976420652,0.2668531069080913,0.3801186868009927,0.48677820295806057,0.3512034921799075,0.17008724938393843,0.40960734054352327,0.4482130587633669,0.3455119425896835,0.4398756951202382,0.39877592676844115,0.43682340904922135,0.38558056177367056,0.37708185764930696,0.4376266549192265,0.21491521423578008,0.34347158594280564,0.43914941453785955,0.3063489754494736,0.4327884073154619,0.2333816525376223,0.36907383152313183,0.44029918093511594,0.27400906159904187,0.4989107166879471,0.47053824250906423,0.36650036381370943,0.36414624486646113,0.2734706552221411,0.40521808851073304,0.45268762373041144,0.33598548945166595,0.3783046152035568,0.27721632709527266,0.42227298532864194,0.4717656577702292,0.4606963187467381,0.42123092070072193,0.46753578448942756,0.3030817871772245,0.36022556898020397,0.46108904399706524,0.45810611651112754,0.3297939990343395,0.43387908783516593,0.3978005912176797,0.3431313343098324,0.42919998165076834,0.3245835773432644,0.43551792779017334,0.3759629687460362,0.4974495105291254,0.3304205304911261,0.3577882111576359,0.3186263504602167,0.19859396040705177,0.2964709037719017,0.41065858964486057,0.41363221352917134,0.4414647609488563,0.3215742622412797,0.4516821818165221,0.28799263979685946,0.22511680222000616,0.39446814310087625,0.3063566094955525,0.39549797709379014,0.3661197740333817,0.36498042455185165,0.43392093663434234,0.5087905297860977,0.26269044534582997,0.36210621723484626,0.5125803017593623,0.4094673758066906,0.3738396826729083,0.3802534178328632,0.44553444967788297,0.4497275378893937,0.3865182893792147,0.35960911350099034,0.41390975312369926,0.35058257168652246
AFL,0.4654858090714476,0.4395134410825441,0.38849635390361575,0.3303781058292434,0.48032092738168247,0.312608390408858,0.2203992156012809,0.4829421169314622,1.0,0.4102124601042045,0.4819914091735861,0.2188804215111539,0.3741040245724017,0.4142082339361556,0.35630337912699056,0.523417907869438,0.3799121499007991,0.622196942400796,0.34563629827045206,0.3437508774759898,0.3918325561120357,0.22509752007262435,0.3994595786219486,0.38422819039352707,0.4443764319590754,0.3257877728198829,0.6774866356774829,0.7388780881730911,0.3799828121162503,0.3560335983856917,0.7053715544198225,0.6146990250276513,0.34456032248948604,0.5587637405668257,0.4484979511011303,0.35062228421351743,0.49594783228091494,0.4341052592715971,0.3553665917707387,0.4084115688441576,0.5190305645357632,0.6298953421811344,0.4653648401590159,0.5997726386794094,0.5967164788724313,0.41987286535460977,0.4070990706480788,0.34016043735216306,0.5567699968786765,0.39549440552748344,0.52923891870688,0.5046710065891353,0.2603858857764509,0.4685365892499483,0.31060977573012044,0.6392813785119784,0.642088077109252,0.39907379563173173,0.31559326414784405,0.3339536421941887,0.3413916845618266,0.22768360648308456,0.28962223070645493,0.20091139197282706,0.5834283891293154,0.46730306671512317,0.5735770680349288,0.484394077050577,0.47137709652151827,0.4697444056290959,0.32234728767378995,0.39711583602127815,0.4202843810935809,0.5258123275806947,0.412124119679573,0.4428856718189984,0.5574538363544207,0.30006579957928675,0.3241029413303365,0.48063810175030725,0.16205954941936823,0.6422061475319403,0.41999496178751067,0.45173248957492584,0.5100514375169508,0.5101975608595437,0.3870275577282672,0.571096670131798,0.4686773584312698,0.597724353652824,0.3748183427870051,0.3449130426575843,0.5507301659515356,0.40016749381628713,0.39151424876190855,0.5660875961588554,0.3045437586972691,0.5850770953076175,0.26870205774831346,0.6552088231834899,0.21971498223012753,0.4600423500385667,0.5976577833450007,0.597305079310473,0.42647357413578724,0.6625352707471238,0.12984619998887456,0.5176125763489694,0.3595741589164731,0.5065003967781676,0.4763416347449105,0.3715988781473261,0.44628172320692316,0.2380275393542942,0.5136289458529886,0.299251685201258,0.43273026002917564,0.40656558217168115,0.4337924061347531,0.5127075635774934,0.5226868023597226,0.32921563285058736,0.3022180155206118,0.2897081648535952,0.3523976639141234,0.5095322359658849,0.5335437411616706,0.4137943840111524,0.3697739398846498,0.5488643937189973,0.30066357689398143,0.34448123482005855,0.5068089913046538,0.5453295919366593,0.44412929847479665,0.2071441673788545,0.44468405218419704,0.2730182675111896,0.6592328043724854,0.20061574258928014,0.29342102720509095,0.3564489653638603,0.1681161643376391,0.607141268613235,0.43097627230395086,0.5255434151083792,0.41159087601929545,0.5276867843804746,0.5982219729923537,0.5911878970140063,0.299999825843501,0.5363116721270403,0.40601167333930105,0.32644922530857573,0.18427399514633044,0.46897505836821396,0.6250307214926724,0.204853452055921,0.4545509698205931,0.4499291261038058,0.2653357880015407,0.2810620969302759,0.38110831165049075,0.49539215939875975,0.49425617013081685,0.4062149935581905,0.549900443973411,0.4036209222538654,0.3277190088921158,0.4520846252236159,0.4543895979489503,0.4102757612424338,0.29275825820057755,0.5594898958491741,0.3673441257453696,0.4508587227588883,0.41873485912369396,0.3825606627827118,0.5704616692971036,0.4216961936675966,0.4784539165894419,0.6600590642144909,0.25730845800376123,0.3671450987502656,0.5604898446413327,0.45082960660411125,0.4955421869459953,0.27617969857176466,0.5354720797977387,0.42469836536672595,0.40997394624438294,0.45408058087681763,0.5219443871654267,0.19827530799800414,0.29295503185179406,0.5977970416184972,0.23749735580894138,0.5278019109514308,0.5572838012322803,0.24539034110875735,0.510493295520984,0.5563710449367169,0.6319543975080386,0.54069038073455,0.6818316107578084,0.40768007554263136,0.4850691851738842,0.4509937246054646,0.45368298734685686,0.4049178910694265,0.4518036555900928,0.5140987082375073,0.3571292640103485,0.47523901320514644,0.6721363050890716,0.20150593935760608,0.5603559862775543,0.4433111822966652,0.5486846313874069,0.3790690435967122,0.6220362066989388,0.46219201506838486,0.48776620473335053,0.5479961029154888,0.28014385665644376,0.6019554235951055,0.2073349189817389,0.2220225196204116,0.3617857758635506,0.45807799026711254,0.40402719084252686,0.5180124191753148,0.523393666577631,0.3966873732833507,0.39628575437003305,0.5877931050203612,0.4827897299586776,0.40100788374302293,0.43827390963255985,0.4766848645139804,0.36024125828389275,0.49182929477179865,0.40553446653855235,0.5178541634878308,0.688445110124325,0.35532264618500475,0.23870619089559952,0.642132833495709,0.30735618037746604,0.5621042424618011,0.5258718805907091,0.4982680422952239,0.3860216320979371,0.10458056829721186,0.45021671218783943,0.47094956012299616,0.41212528874689347,0.4229805577011135,0.4470650290512086,0.45275715723979776,0.2689693235384853,0.5337970840707031,0.47965784884612184,0.5592608067974606,0.4529694348897985,0.7101940526052248,0.4573646594258039,0.28455446260234346,0.5946123617631375,0.6350827032113914,0.39593408886066517,0.5728409807592862,0.24974873111123652,0.5470561154125458,0.6064734415613494,0.5088545489691342,0.4411182346508988,0.5522365014829802,0.25719691565659286,0.30178324410478413,0.5150968871610392,0.37363080231040896,0.5333261211574595,0.35282907506594924,0.25580627706225467,0.7313559521806251,0.3772461060248314,0.5492720341096835,0.4443649421512966,0.35262065284771066,0.3963133483555089,0.4933211163368097,0.49290319696375334,0.30572988575926824,0.4071283357591838,0.4435165991305665,0.3268586677853574,0.3181147042271946,0.5355475461447845,0.6426238422082837,0.4571615388154937,0.4357904782261521,0.40882911363282376,0.47444165132777066,0.3660624819947198,0.1507925041126985,0.10374594597910894,0.4485721613712456,0.4565667894859384,0.34784138782196966,0.42909924853121123,0.4993767025792306,0.5088900781499386,0.6334910031754882,0.4031410453289338,0.48002093488857134,0.34767925474927164,0.5012528438494863,0.27544371719390637,0.4379286564955215,0.3999759279576757,0.40692757299478605,0.45206361955259344,0.3940189500616281,0.5245651281697657,0.4390093937354415,0.5276432440139277,0.3738846395728485,0.5279896202057272,0.45583684166496186,0.23086357061770788,0.3619311479851563,0.6482331609291415,0.5262493674063599,0.5631893951357495,0.4390470940821426,0.35372883986051107,0.2185174658239637,0.4500406086184144,0.5667034802228798,0.4585946113071918,0.6648600812401215,0.27648112813487097,0.5628543255123798,0.4874206360534307,0.7435305502227034,0.35986842122011453,0.45018882082732625,0.43656925490535814,0.7590248429433744,0.4428496944925874,0.35963988069643604,0.32537715142581936,0.46981622190113687,0.4620216140001158,0.3428754932503768,0.36271491703969866,0.40790243460655556,0.6198338716079662,0.6284314818776076,0.5167842191054608,0.5721802013667976,0.18226099892697126,0.6490714398478415,0.5196667035604667,0.30012131745982773,0.31244258691406585,0.515704401137261,0.30528224047186947,0.5112795845899796,0.5118884873264808,0.5192433266374555,0.5181886822848972,0.2940241201481043,0.3029171563355393,0.528356587976009,0.31979181724111394,0.4716772123049323,0.23709178561457367,0.4266864570889526,0.6004019771934263,0.3681120901074981,0.22461829720973045,0.5490017776896402,0.3891659111203242,0.45514587648441845,0.5730969885152174,0.4864016563927908,0.6283103405929857,0.48959870205877615,0.4195670910807404,0.523400098970514,0.2565148833503153,0.3431950993518439,0.5843794306640923,0.3535879571184145,0.5329689899313216,0.169120921736822,0.47341891108298645,0.46206942275542634,0.23138577473112937,0.5788713859403121,0.5764489034244998,0.44218090141352323,0.36475619615793253,0.2496458662467506,0.40552260214476543,0.6023709457115546,0.30815733886173036,0.5293769405316952,0.27006690407348216,0.5526148744034441,0.5391600814962604,0.659654142096677,0.4237368419813685,0.6377126284101436,0.26066319045110437,0.39731376589553835,0.6491775212968756,0.5078111964128155,0.43365527940019294,0.522649944221315,0.5084472721542939,0.36495401682662,0.5032801768272386,0.4791202317180427,0.5400060481360592,0.5353995552013727,0.5149007227707324,0.3760606523868289,0.41881511217540957,0.3569199683701918,0.22981339387694147,0.34269085662662346,0.5476420978405188,0.5038371242452393,0.6388120626720042,0.42318934997430074,0.5369137334770202,0.3189816080643881,0.2508447246356245,0.48855965332190265,0.34836307804355315,0.47440667673255604,0.3729926279031284,0.2822955343593027,0.6445973590467902,0.4958722919777016,0.25530165757328555,0.41282525187963515,0.5530422235337161,0.41493601065728236,0.49838378912068126,0.45976317779585907,0.3585736549987268,0.5545658417198677,0.47887407991778447,0.33656905139403304,0.47379115336219385,0.37879316036263944
A,0.4477629787457875,0.47163856626806383,0.5803726940283337,0.376581191759448,0.5678460847844987,0.5067924163848093,0.3616415150012495,0.3904205777225306,0.4102124601042045,1.0,0.507476912925104,0.38321811653971677,0.431253973084295,0.4459148912409465,0.46269571868444226,0.5090902699294747,0.3064125179882044,0.38728910064679073,0.4790944572811773,0.4769106596567006,0.27282819418792115,0.41356913155173497,0.29244947584192477,0.30291284252031925,0.326108461534245,0.29136407694942956,0.4422114819311285,0.40167352796488076,0.43766876321440057,0.36875057007151857,0.5452649198782041,0.5726006629653638,0.44035993834884735,0.6185411229980162,0.5382353064660969,0.5694857165973709,0.44732001279174993,0.29344725135178745,0.4784555156693499,0.506747071783888,0.4569120016549537,0.38144071307400174,0.36757980372187815,0.49314308876207696,0.36394092789478155,0.30780863379105766,0.3194312147484399,0.5461070402388497,0.5158221650579426,0.3077563668199561,0.3791094308005095,0.4946091897807218,0.3497818956084928,0.2897966612492827,0.42674514426983895,0.480692688232579,0.46461359239356453,0.29666027071864043,0.46872449707207353,0.4858601706557725,0.3536441287159904,0.5582275895027499,0.5859655698858562,0.3278632336896033,0.5910452271006051,0.5114047354685075,0.37641666218375336,0.43674053958677084,0.405774752168997,0.4944004665331914,0.34667246477635244,0.47284563801683394,0.5235574104076828,0.48103573718116,0.3756790525911725,0.30270995546338486,0.3686236339020356,0.3324427096080956,0.5411972740153669,0.40171198492855004,0.1569230709543249,0.42592527893058263,0.33936606806552805,0.39220288173003126,0.340723577190854,0.4642618236601276,0.2872938173219592,0.4807271315916947,0.4881199642717343,0.48476818260800414,0.3280544974977918,0.3630800137128751,0.37422858734160397,0.28846319348342114,0.5804901333090746,0.46166657128583016,0.3342025189134976,0.36847630076905064,0.2958409657071129,0.4022771812589355,0.2717830733594124,0.3678254618415549,0.3941692973974403,0.5140803215829476,0.47375335846349,0.4757413013395154,0.19224881624912624,0.35882073068653153,0.2755265125504829,0.36292399590474567,0.48281291482879224,0.35412356067895234,0.3934473164484568,0.21773195778216878,0.3246135747173025,0.23495298655803654,0.369444920054454,0.5093614438580445,0.47255570349352444,0.5214228703131519,0.471360502189968,0.4815140819547239,0.40569273978885034,0.23636689444921594,0.40106753462371425,0.45661823207405977,0.4567983503652061,0.328672735561086,0.6883538302288581,0.3117630764000859,0.3024896006376431,0.35499528221005866,0.4170862989515495,0.3684501059396682,0.3072800420697963,0.3603486379685097,0.2650526957874214,0.3523849346413302,0.39749734510106766,0.29889826633038286,0.2534402423253392,0.3256770151579523,0.2823435509534161,0.5324335144528121,0.44230603696738147,0.3068204404968699,0.29808581050171,0.4795591338690015,0.4828251051716488,0.521517007649157,0.4159050231290622,0.5028932398259959,0.281586634945273,0.4607853868756138,0.32669241803992255,0.4043709461164375,0.4960142428212863,0.27819804513044627,0.30508032552115955,0.29445292430050646,0.40995105635054524,0.20173000046023948,0.47260958627461097,0.36615530032592536,0.37831973319362455,0.4201620117378839,0.3367583019852244,0.3161354750153177,0.30945639285863746,0.3401418366704764,0.35293852128105946,0.4509713578832453,0.33036639702476145,0.33245791703522143,0.4415513886570699,0.48645316257682636,0.4803352070214691,0.45613865349741173,0.32830259984888943,0.4142027778270624,0.4515115905754414,0.43152840362959866,0.3035688442699384,0.28470922176856256,0.4997115140391408,0.41047099346517385,0.3827681654996073,0.4170254925181643,0.48366121101684834,0.38663382931541634,0.4667585270917743,0.4638399245994719,0.3594683580051479,0.26074924928422594,0.41602109698453443,0.44370142144028896,0.22674352417856694,0.40901333907533,0.41313597039623234,0.35124912829941957,0.4959871056963014,0.32760690544221027,0.49784003784656544,0.3352603775675013,0.3555435559807651,0.3388661846875047,0.3988728795458682,0.32876997817384024,0.4246252534365242,0.2858251887401047,0.3234771854897961,0.41773497733181325,0.48120855201738566,0.5078740702200146,0.530393047939824,0.25823566854099966,0.38582057227481276,0.3977932876944514,0.48285246815793104,0.3140109616021253,0.4241805507620715,0.36135275336380573,0.42225696182166267,0.5560201317947391,0.515701235637685,0.5470327871264827,0.3486057819990497,0.3878315540723744,0.4440566641425164,0.4705816551601027,0.42488403332625546,0.44423098649172976,0.4167881042770013,0.5603146328703072,0.535847172240326,0.4878817028464914,0.618094705091202,0.3511578510477915,0.4285078475324597,0.4516307015162246,0.45052177617559697,0.4531056577921315,0.4346422577782746,0.45992458799989805,0.490100650818591,0.37742236666459217,0.21581343384526258,0.41266378780680174,0.28889042828900624,0.32356327830833237,0.3459968890104083,0.5154970095112885,0.49721445498685013,0.15087601350130395,0.38468792416352265,0.47377723044731274,0.491623463017795,0.3663465323779128,0.37041030445077694,0.4285584724724722,0.3330601607315333,0.5241297900837243,0.3725349421691674,0.3974668316211642,0.3431887077504602,0.446986702661866,0.4598082039088888,0.35765126726058005,0.42357855913768905,0.4097381736318596,0.2892189110662553,0.36623196769973515,0.3517926829664746,0.3991075537051572,0.52516181158778,0.403980659876348,0.502562346626928,0.5445959702527287,0.3555486519159831,0.3215335195791177,0.3741585126012248,0.3414561127866249,0.503201277266993,0.40014091936679796,0.39257984050756733,0.47821829404704097,0.7254065008446478,0.4195547583148833,0.5299991667440624,0.4403430828790057,0.5378357322096039,0.3809883280648418,0.3876010704674669,0.34299590548285075,0.2980145535496168,0.40017929806810854,0.5163779275811674,0.4080664856049011,0.5918408005330108,0.5228514160329003,0.3168848357465271,0.46381914962980453,0.5569982972446745,0.4970399076651318,0.42600241204343653,0.3155531308798883,0.14972170804019833,0.4375312178582428,0.4256618608292417,0.34621067112671833,0.3162357361166174,0.5049321977757031,0.4723033249874121,0.5008687477425137,0.3255677631192145,0.33704806287454614,0.316587002251082,0.41260527454852336,0.45314578180577736,0.3603841324043194,0.46188971087133923,0.32663978059196813,0.2812194909101241,0.46290201975662776,0.3776332702147424,0.4621313904493895,0.3313515477184134,0.46649926772590367,0.4437956231465318,0.43987850168748954,0.3566769785344594,0.2669524283809523,0.512486150847063,0.5171626406828523,0.5099446752604797,0.38426134022223274,0.3989875130443396,0.15337793321307178,0.34275699626027184,0.3251057762063579,0.28567863242161473,0.47529035566528005,0.4455741333306331,0.4992255184525493,0.33746613239764167,0.4787709389851633,0.3571147269841866,0.35898286828183834,0.4888788904946665,0.48868278686159355,0.31907390425192816,0.4922764575973068,0.3249750894347576,0.415682362448236,0.42794855432197826,0.4237158074673308,0.40958691076181836,0.35521448983828197,0.5171701369840779,0.41722972759039473,0.3040814845541268,0.32404954532303776,0.35315628957371986,0.42751128770949537,0.4417210048610783,0.4273139558053429,0.6851967134035465,0.519970726138602,0.411466744448398,0.5578390546967649,0.35597393395916,0.3627591642959732,0.5754876451894508,0.4966226361939886,0.41751659575382566,0.3095627210075311,0.3759970643960641,0.3551203321980325,0.49543880980999394,0.4674077130924641,0.28902153553240734,0.5058956880029079,0.19057898669760637,0.4525737701415994,0.29924224309061187,0.3627758865391115,0.49205853478051614,0.4363255590063769,0.4864011532881063,0.3755357697711746,0.518933000442274,0.5182364214346703,0.2607561810383396,0.5440420369844772,0.3338362938023843,0.3562056204892123,0.5614509343201052,0.35067627557092457,0.3888179471513882,0.2872514553853861,0.3230353825268846,0.5731656415181499,0.47496736503311965,0.4826216883957543,0.5054950692011778,0.30946070408304727,0.547626214983389,0.46606021946421156,0.7253184473200367,0.40249036690634016,0.38765996934051083,0.5190324391409199,0.3993441425499657,0.36510994854228795,0.49941344591313636,0.4322203677051767,0.46221056014023376,0.24219066924750404,0.45329742302191767,0.38265440236754844,0.31284123415462484,0.45930307934658243,0.314464700033414,0.4319562739414094,0.46435444614519744,0.4173371030248854,0.37201106020766134,0.31155977324639295,0.2596062053757146,0.5184685074664905,0.47369893342481556,0.28751379676566496,0.3803305311551753,0.3339954348552803,0.5441226803358467,0.38246626180045407,0.3967584972835241,0.38126354027202686,0.4255706660007383,0.3453490758178033,0.2988971441312001,0.40619549353213535,0.2661256203005279,0.4072800568194993,0.7095869312290779,0.2609306742333877,0.4290857575133017,0.27779111224356523,0.49450629208340496,0.4077089824566903,0.47373078294648924,0.3049778694652682,0.4300111233583354,0.3444899880329674,0.28237075624015795,0.5451451289554996,0.40867053372884743,0.4755163301013758,0.44442929733071945,0.5458735316972245
APD,0.48878790030858876,0.4601824378436842,0.4822464699193331,0.3190171885537134,0.5230101887300075,0.40317209361338063,0.2852815478948887,0.42329881654938634,0.4819914091735861,0.507476912925104,1.0,0.33435340044424844,0.4242521425719017,0.43175332667365035,0.3442068336341509,0.4909694266572531,0.41520512142124294,0.43339431592411853,0.4060904500854369,0.40263913306565574,0.35506651473154394,0.29565973739811113,0.3615202499997933,0.4171843789326976,0.337874391546128,0.3847233781407521,0.4796419888640515,0.46880850485392445,0.4310478064471521,0.40847738073008627,0.5817991001018881,0.5925270485221181,0.39993707022881375,0.5660409859057978,0.46140643955900074,0.48516727199525006,0.4528305682284582,0.3238928543569953,0.41754908802422425,0.4438806121269951,0.4161952594485817,0.46993751053646443,0.4283824766143732,0.5132863340673485,0.4292051497732923,0.3690665748853857,0.4127391316978197,0.43316740989225766,0.5152705744385535,0.33787313869293933,0.4208805912880025,0.5492444935282588,0.26905840427975347,0.36110876828331134,0.42318736266800505,0.5019689556189687,0.4851797165619208,0.28014201202780487,0.4094061767713828,0.40773858676801733,0.3534996265469115,0.3404584446654733,0.36061176965235087,0.24498916761164571,0.5753042008730839,0.46220616135322756,0.40425230732474543,0.41178504247106845,0.43362303966311166,0.4399705700740885,0.3165469894278256,0.40930869599760356,0.49904513825814883,0.49924424448052324,0.36060620361280793,0.32559243320291603,0.40472008688869043,0.32921467357370626,0.4279649898086348,0.4224196297224645,0.225352478420804,0.45611038210262284,0.3596422359745321,0.3758839348640691,0.3311557893117874,0.5012938575420642,0.28525286083513907,0.4825907961390368,0.4516072813205287,0.5457621331451724,0.35107011968943663,0.34205830736520193,0.45322681571108153,0.35364669186251013,0.39849426911746744,0.4390325967458623,0.32200962116926096,0.4388450909730612,0.2486996198089582,0.5023789694163318,0.33623226956482316,0.3817371667268847,0.4744403342470412,0.5120747403310669,0.4529189152495532,0.48969501746427524,0.23781071591519595,0.4185108245127347,0.3871378561736289,0.4747210766797073,0.4607195684539725,0.4440295935256077,0.4075072027404849,0.24579104080951725,0.3955370781783093,0.3598592571701665,0.3894900655450892,0.40565097848146786,0.43884605666144233,0.523469588938234,0.45005689620957007,0.3933888503624376,0.37965478801045155,0.2631145211835885,0.41423413410190163,0.49174485885822006,0.49656387520212186,0.3628972882254855,0.4664789609457558,0.36931893568752766,0.28271119809177264,0.3192000919666836,0.4610199723706338,0.38373378122659935,0.3438253531957276,0.24369232410564481,0.29910934701555963,0.3445099393583968,0.43704860764773623,0.27129438020025454,0.2832547152683434,0.4147678581305068,0.21815341390270887,0.5544226973427019,0.4059647949731022,0.4238564666575803,0.4090303462787098,0.5541779581509022,0.557706216305049,0.5501339205202495,0.32273385749139605,0.5873487589321936,0.3778992327749464,0.3479421162254272,0.2676899946062045,0.3891157905791549,0.5482731617572957,0.2377403915676102,0.4149394476243729,0.35912492673772234,0.3246684771074981,0.2310375489969453,0.40042378706800547,0.41924194157885397,0.41828543641582394,0.41152547006060153,0.4400069045332515,0.42266972439739486,0.4098469087326309,0.44704567445095156,0.33304850179038664,0.4567775360484065,0.3170112831961396,0.4135996411746597,0.36904151799867485,0.4497882694168268,0.4130454644051962,0.4636193004189295,0.404134048766974,0.42598539434363725,0.4240739714681286,0.4515565291375576,0.30171788003383276,0.3768529725760739,0.49791280043395314,0.4777327265576121,0.41867985244484335,0.302981113542448,0.4986195069037962,0.4178826641724729,0.4364461228416821,0.4064551221744336,0.3913335797049556,0.18632935826397867,0.3687178530158042,0.48830184285086586,0.31462575776179486,0.43085538541789475,0.48132589007326526,0.30560780840037527,0.4682902766354947,0.3825732399029575,0.5043288645611023,0.4051303311450618,0.4394355162058786,0.3431025998006587,0.365716067694423,0.3902798327608054,0.41260941449665195,0.3481130035195991,0.38938034540880256,0.3945336798573155,0.3677295287003135,0.48235963235422746,0.5793952988788401,0.2832225656851287,0.402997747835776,0.42063194025888223,0.5119351023650452,0.30795678449015074,0.43744636355041766,0.3909374931497499,0.4553484162943051,0.5722780627076945,0.3455699732102577,0.590573179158685,0.2571619828378228,0.2770263617181496,0.4094959969767203,0.46126747571575455,0.47322020481116744,0.5103600134861798,0.45984090952436185,0.4455594366460383,0.4332193794708905,0.493588006555008,0.4667627249330407,0.40282562644129644,0.4298740071164955,0.42904770836014017,0.41930430677006286,0.4870081777051205,0.43083199125834004,0.5004554951399945,0.5258812191295787,0.357915078651682,0.2821161555087844,0.42783338548593774,0.3773226989530649,0.3868499070185122,0.3917341619886847,0.4412929896742373,0.434359930542479,0.1682876230240452,0.38756968354301347,0.4226335087857731,0.4354343281508665,0.36733033826305683,0.3682692005192415,0.40406543783840415,0.29861549519472885,0.6831564555410432,0.3612564641746403,0.4128900757569262,0.4019882385499413,0.5308359182270962,0.43335915631865024,0.308275245759636,0.537662764065768,0.4322463795080567,0.3167330988248056,0.3939505798144786,0.30855189752791434,0.39220471411411534,0.5415939519207793,0.43342131933907363,0.4776798265523749,0.532885548415414,0.26502398226286883,0.3908886587204468,0.4443175601197558,0.34018180100453377,0.4676884226183471,0.38027058747812714,0.32433453264399026,0.5333973310031725,0.48306372670186043,0.41225986877954846,0.45531227214148917,0.3662585280071487,0.4658081398172812,0.4081051944512523,0.38386913375346204,0.3006900650244611,0.3554463562615678,0.46980093144783275,0.42981575207800743,0.3641587334170904,0.5316069948628859,0.5260558931637038,0.3510332751310153,0.4610470897582723,0.4607013076290023,0.4978035789828714,0.38891987011131857,0.24715042975810608,0.18500063216668036,0.4267571567364611,0.4181734514207547,0.40419396301153704,0.41924953369867407,0.5056734577647206,0.52252635871566,0.4990006647237122,0.3673492707254152,0.3090801442162184,0.31401724955448507,0.483411075972786,0.35566626548583,0.3713452703330864,0.40675418443651534,0.3446320363643432,0.3280222051273941,0.422518392958483,0.44255964334875353,0.3623759437074155,0.37108901571541303,0.4347222081921241,0.4860226873657409,0.47933685001541776,0.2585676997807237,0.2899138252835765,0.5542557395735483,0.5304454138763279,0.5019356346054495,0.468391529206103,0.3567722594141743,0.19245912627462314,0.3795000806036245,0.38857797511990955,0.40235354011444296,0.49604422406559784,0.39310377709288413,0.5708741658547816,0.4239330344203019,0.5314347682416807,0.42856270259928747,0.39237792852730724,0.4940811844197744,0.5483241143722675,0.41201560766150813,0.3855849833828789,0.33972489774557213,0.41805078362440684,0.4300982453316694,0.4040434136168189,0.38031844077831056,0.38730879777973615,0.5210412367984144,0.46319353705565175,0.3794781557321159,0.4007719151863162,0.25121582736143533,0.45138752237838337,0.5187248230933408,0.3589360876974549,0.42316824588032603,0.49975528654073403,0.38243417567294596,0.5467448223180668,0.3701025416153189,0.35410429988865033,0.5217061561772403,0.38624974240624954,0.4072440773773679,0.3804966870166134,0.3655765356775552,0.43660123429522213,0.35865353419368945,0.505839362191536,0.34143772129296385,0.4416530607287912,0.28683147127852504,0.4833598153884183,0.4246812880362149,0.38487505925521404,0.5048908963828778,0.4702208093904316,0.49901576793295976,0.42548590852831636,0.4530299349130436,0.47075235073932625,0.23833924571500748,0.4316271167099213,0.3874453876818247,0.343209127201855,0.5233143017930724,0.26819776960921576,0.39874475775103313,0.3080066293457019,0.3284154320673791,0.5303589823397237,0.4659839900343316,0.38377695446421506,0.41470648206234656,0.24544020412530257,0.5008392157738797,0.4811637434632553,0.45944997343158966,0.4271240818576741,0.34293853969441745,0.5104760003262827,0.4089956002585736,0.46983918488620663,0.39576197399100327,0.4583108922064009,0.35919695043024225,0.24887385372844054,0.47496759261318044,0.4240670598720207,0.3107573132771601,0.500126228105334,0.3399453994330079,0.44336964671493956,0.4701753202799719,0.42571371931680885,0.3840816191337549,0.35442032281252006,0.32049370092895185,0.44667263531728907,0.47599640717620195,0.34093383958414264,0.29130720675973276,0.29784814161507295,0.5279954069626541,0.41319167598299045,0.49614547755898336,0.4416649034175116,0.4400453809582749,0.3429984908150528,0.30965930759334437,0.42602865243115956,0.25486028323160603,0.49652004149003237,0.4316305767038733,0.37099330907032224,0.46608318225322776,0.35554259537058663,0.3483381324414682,0.38842152358604426,0.4998032106382371,0.3264497076069287,0.45734471624625506,0.3578674945514394,0.3884388968184504,0.5493279345831821,0.43234217353543714,0.4039914325282735,0.41598906591617435,0.4076184802700931
AKAM,0.31602784028140535,0.3024966411789593,0.39132989831254145,0.22444420571343882,0.4108634924861328,0.41290061879403284,0.26305437608359583,0.20506220171078085,0.2188804215111539,0.38321811653971677,0.33435340044424844,1.0,0.2675361033155089,0.2737528495837742,0.28426221088677817,0.3687222563745178,0.21593128855821045,0.24530810368315284,0.37963347647134765,0.37896897013858794,0.17482022361450203,0.35744258128900447,0.130363246734822,0.22151518455742605,0.2138552476885665,0.2034626807813737,0.2609762400510327,0.21328177727991718,0.3112651112537488,0.24723093416681163,0.3523396641111097,0.36749280809521556,0.35630637102758866,0.3981684026279712,0.3302764524692147,0.41308063633717496,0.3254882651335871,0.17833373647465017,0.35613913361870186,0.33089466832876524,0.21949583466082,0.20451924780356795,0.23655888345009637,0.29646127411898443,0.1922118682006796,0.217609537452467,0.22872248605729806,0.3845721028325381,0.38513203041578875,0.20496471202728725,0.21885666272667742,0.286673104036388,0.26024227964979807,0.1859671261741316,0.2814073742579796,0.2931896454487455,0.29413717702536535,0.1886371892146254,0.310231989970969,0.3015434998829783,0.25764348682543675,0.3204630455468069,0.32024272163555917,0.23674373285610847,0.40288377183939034,0.3625068923615833,0.23139396382844876,0.2952367918241627,0.27697846142122096,0.29553274492985626,0.21364735245049501,0.3072313980378952,0.3914591830816835,0.31380227928420884,0.26437847439544304,0.16104407158331593,0.19970265777038215,0.2586700971044792,0.3986443407669925,0.23569556418804627,0.1875138286701055,0.24829311385745104,0.25276962857162366,0.2646411019076118,0.1830119214189659,0.28456810288880663,0.17508849689593942,0.2974626393743764,0.35026254948094143,0.28481428786146934,0.23419808006362497,0.23588383354218184,0.20210426746235022,0.20413315855022446,0.31320173420595393,0.30496132017949523,0.25062457026185775,0.18884860208939475,0.21879898716797938,0.2275453238519119,0.23657282370616547,0.22886545822982507,0.24596189550527092,0.3180796364190777,0.3990497885657648,0.27266805493100155,0.1778042674283192,0.21244527305892813,0.1933344722170532,0.27264600055556765,0.3402934275078698,0.2585154079701927,0.3000768401466697,0.20312764280543563,0.1665152187484698,0.16679098461856962,0.24222380434805635,0.30522867722536867,0.35028893718658816,0.3326423390470172,0.33774573616934667,0.3510320297746493,0.34412425827684334,0.18022254860624629,0.30390513487524906,0.30085419199590074,0.2748789907735874,0.24716196004564614,0.35846499755877975,0.1649996334565707,0.19976502289046008,0.2096816200852866,0.24271481151191143,0.22530753313935523,0.2003501162635964,0.27085459007347845,0.14472652635403244,0.2937111377910189,0.22765979657183769,0.21414073069321804,0.17251536362613673,0.21552304944225392,0.21891825721099673,0.31824726333724374,0.2748468199672649,0.15358993612039354,0.1776573769555252,0.28174233887684963,0.2879290191697241,0.30099972578117207,0.3312960481601301,0.32273200475747954,0.17950048545507113,0.2787718184177163,0.3028226943279472,0.2570256971878231,0.27528401738225633,0.1766493383672069,0.17378423100993703,0.19228608439778289,0.2625722741852589,0.15571574314374642,0.35368882043974126,0.23097563932683388,0.2153581405731294,0.276083887776822,0.17570395486746287,0.21290800357308717,0.19536726260270587,0.21756043035672434,0.2328297027714707,0.3432254614761375,0.22035321359611038,0.18776547978185004,0.37174157986514733,0.3481378677449982,0.3064150581373371,0.35725164124407777,0.15193417069409312,0.2891837334693061,0.31002388359605015,0.2251206980826937,0.2029296520557555,0.2045946366033356,0.3391166067290325,0.2667906400510936,0.24364080190205156,0.36467846604228055,0.34100039113588776,0.24057913775947234,0.3053823727655322,0.2787004031726068,0.1984338002455044,0.2298758530768726,0.2539421194173976,0.30090983694074525,0.20710993393021043,0.2213503745137815,0.2584823934923861,0.30299698580807527,0.3645458666689514,0.19676523239548677,0.3134678883292814,0.18336558135780748,0.1775658397415081,0.25615268375342526,0.20264163116140957,0.17168122099942484,0.2737102011383065,0.21713076794340888,0.2180140761455763,0.26884916932787284,0.28572142549245777,0.3401889511957276,0.3303943602450228,0.23060210038607315,0.22065336890764367,0.2937095705028115,0.30130739664864914,0.21082777414132198,0.21822446332787254,0.27192154895062315,0.2906755241847249,0.33077635636309294,0.3822474788342028,0.35584320590227964,0.2550969729551205,0.27131908913559416,0.3376704852540069,0.3165360260780629,0.2553919464073284,0.2605910136565083,0.29703877979025484,0.4153805641764504,0.34865734371608287,0.32459387535910966,0.32524692020989127,0.27462380129901093,0.2978164256697134,0.2967489738979158,0.3859125962012273,0.33580764848176003,0.3097528611698203,0.28360976513321173,0.2844587114938979,0.3810832382607855,0.21770726057289447,0.21264677292458956,0.2512610012857945,0.15494584327012326,0.20557079698386008,0.3395154458614094,0.33975995562304573,0.18755702033384586,0.2902291025665547,0.24861311261957106,0.33103033711049606,0.23702713886111554,0.2787998787548222,0.26680645868044683,0.24061936821638352,0.342681096316014,0.23272476730981223,0.2042547627023119,0.274901688860239,0.26180551666537666,0.29018412203199767,0.27872828426508867,0.24514007350845737,0.2193757734793223,0.19541188944029889,0.19964501759792844,0.25167517031074166,0.23528127136491334,0.33675384529554336,0.22551581143855698,0.3307836645111943,0.39672921537479733,0.2827769224668763,0.2796699240884829,0.23416338707848847,0.2578340053179246,0.2778106359247767,0.24324033425647804,0.31724567583780533,0.3098149468362314,0.33883697124740847,0.24519490560555404,0.34149090090129086,0.31630343826739665,0.4330866663666079,0.2474056256051328,0.22030152890023952,0.21460020880686473,0.19735180465375537,0.3421425139477115,0.36130629860501806,0.26085350296684046,0.41103863277854114,0.3368657506011486,0.18297092920974045,0.3250836531780287,0.3672131482746892,0.3413541116022593,0.33421823207084606,0.27083546928180907,0.09192181570761987,0.3008931925782831,0.2869949423636857,0.2155778398068264,0.20513381028771455,0.3302970969346738,0.30181443396952123,0.30541406371343227,0.25434751971872843,0.18925978431589544,0.21127360977752388,0.2885360939889893,0.33568196067818257,0.2342011888122387,0.29937026294439206,0.24443281771296943,0.1600213546090976,0.3469010575818611,0.2786377527223873,0.2781284718950442,0.17283210639312147,0.36007797741761915,0.2981068707709182,0.2749162729251591,0.32084354974569507,0.22045324734403815,0.2905837236649906,0.40809632087449144,0.3167457013826144,0.30380124337280245,0.2644395920599699,0.08388666958916904,0.1872187230190055,0.20917650004358165,0.16325908295222025,0.2570302235831918,0.3229356717746619,0.2802767434474318,0.1941207760053566,0.30124711523806175,0.2734434526311131,0.24969515266127032,0.3269954955990066,0.3091617841716332,0.1773312738513029,0.3351122270770153,0.22880859508284657,0.267525822406915,0.26085597058957777,0.29963389958211206,0.24794411284115328,0.23606154291550102,0.3189014893706124,0.23603001836554552,0.11584519414854946,0.151842522298129,0.2932937360754061,0.23301288248014096,0.2813350605841114,0.3114324852507202,0.35463572159708195,0.29261413817064835,0.30672038380795613,0.37486740988887335,0.22809116207022279,0.22860353094787772,0.3814095551970751,0.3908994422186315,0.3390883744024458,0.15339092534201723,0.3250676462959956,0.19415634036103396,0.40819135381310145,0.2927890475651173,0.1162904410489708,0.3511837498030475,0.21365845905161868,0.3015184390224165,0.18889342128883427,0.23469388262340893,0.2947782187330322,0.28635444242954844,0.2786672418828739,0.2327038886484187,0.30736074687015824,0.3040934251322292,0.17368427827683175,0.4226110148557033,0.18379135206630098,0.28923729274000737,0.4017131209511831,0.3058583278469808,0.2180819784194359,0.15052599263146973,0.22975899493340987,0.362777046014035,0.2992068031739895,0.28496556550492336,0.32729068774698933,0.23115237211023018,0.3875564039826923,0.291354207984526,0.3895569443561386,0.253967584599314,0.30453856502300986,0.3079537466651195,0.2110501840807176,0.1997689267185685,0.3230203265824091,0.23565164514969691,0.3674222143813452,0.13732519929655826,0.25874030366477696,0.22228094060979975,0.1963429257885178,0.2911702377409763,0.16947551161953803,0.31472799414637687,0.2972221908427546,0.2603195191839915,0.2145538515789569,0.18829391429449224,0.09650485165739628,0.43147569682687714,0.41852174624641786,0.21351392490803062,0.3053919531344725,0.20333193556680498,0.3740803145205833,0.23259606227760524,0.24211414426680372,0.28220385658221464,0.252400761685158,0.27853380007695194,0.2546178954935865,0.28865553205530414,0.19725558174213356,0.28958471819163945,0.3076397570038369,0.21427135457155433,0.25395805272518074,0.1153193846190567,0.33124018379836967,0.29984419235064574,0.27743027072136317,0.20493453834189718,0.2794724604784017,0.2070290324994411,0.2031506614053967,0.31688876634459456,0.25940857908803555,0.33017996973879266,0.2433777625649013,0.3285599069409722
ALB,0.38731515512677656,0.42032841930843096,0.3113484797538966,0.18181051362388326,0.40545640350427864,0.3284510817901587,0.31926242175018066,0.372168239035939,0.3741040245724017,0.431253973084295,0.4242521425719017,0.2675361033155089,1.0,0.3566471181594824,0.36248276105841737,0.44408340191175893,0.23980403974070888,0.2833095102444702,0.3425188385567044,0.33991931679026427,0.2547734661683498,0.30223397790496687,0.2913665443652246,0.24888823096489732,0.3447101591913161,0.23096829868487012,0.41348506473718044,0.4114965952391534,0.305032614098145,0.26538892480375653,0.49632312419943103,0.4796618911798279,0.2352845906629587,0.5038046492757158,0.44565063787323783,0.40982079156478873,0.31042164181364457,0.359803426296684,0.38122763910449015,0.44862632765105503,0.4340550998651354,0.33462491433219455,0.3677770512455653,0.32220939230092377,0.3300854378915195,0.2718331650805948,0.27180282523500754,0.3968105058295359,0.37799721685178345,0.23899890511063543,0.3345591628764142,0.45264198467441347,0.2604901671577823,0.3414852950193938,0.3421952089629844,0.44311481979181283,0.4352691902684155,0.32657109782634824,0.28490886867180787,0.26062465864197354,0.3082191333790528,0.3186538608738489,0.3495402575089977,0.16705299217618477,0.47921832771127887,0.462545093737093,0.3857861523888296,0.3938832265592466,0.42463433405465323,0.3248594715497887,0.1905214447216841,0.3636180538433361,0.3845164199850845,0.3422731007799722,0.3509071324778717,0.2994799784816452,0.3896996977659637,0.28907976392590284,0.3680198060115416,0.32594007022534477,0.09408783298157153,0.4394539552963421,0.2636654977802438,0.3624186808570619,0.3471824238679677,0.4906388378242873,0.14007662988680522,0.45731067864015573,0.3958769122531569,0.5313210490108686,0.21649037830664875,0.24274556446407844,0.31567729832165814,0.36359595585538085,0.36346363747669735,0.4089336145353833,0.2759902770174719,0.3726926957563034,0.22284548402502943,0.32724218109272213,0.11149955204026855,0.25117086619000667,0.36080381921738713,0.38709891669161106,0.34743057783054027,0.43795227579179047,0.09181364271655439,0.22465739933981663,0.21394066311261686,0.29039542512266014,0.37559439547692824,0.18138896779160774,0.3195821582677888,0.12498856276085438,0.3554430469658925,0.19095496028843792,0.31972692590894697,0.32422074024843067,0.3876305090130234,0.4658957751059019,0.3922221860284429,0.33008267119353374,0.261075563639486,0.2768265319415095,0.29540616248108637,0.38935682548019296,0.4350699483628821,0.27305955333301585,0.3391739385036331,0.28540749517638137,0.24633102064404241,0.29318908860532067,0.4300254253323705,0.36214558019023513,0.3740105737478541,0.22388240834288636,0.3217700207899711,0.2749518327434609,0.4114435012573077,0.18243635724266336,0.19146609383596375,0.24495455987763234,0.19449681649782963,0.4760441583070823,0.3356843455647667,0.247192701170986,0.22682488394811903,0.4845078673570675,0.5398100318097916,0.48171137896428085,0.29773941163596035,0.44181971172106216,0.27347778439331644,0.3000439706681909,0.20562879197300962,0.24357583264490856,0.46185910847332007,0.271217794232419,0.24296666333281047,0.355632728825675,0.305807101147776,0.2633457761545719,0.3697095869557531,0.3228948691029628,0.31034600897917597,0.38229832909519257,0.3071153720412798,0.25952365160089486,0.2580138323318347,0.2946706063446694,0.3215565959369573,0.3856898141259568,0.28323009978503627,0.3839557224214235,0.3504646431166288,0.3168737960543467,0.30704264314233387,0.3766104906098933,0.33252520242815314,0.3736985253282612,0.323772359921077,0.41810865324422325,0.32053842769847307,0.24248174957375584,0.3557453892705971,0.46418741738483105,0.43538462044693416,0.315257021350746,0.4656118534770778,0.4393621589034944,0.3766772251025274,0.3526694663274887,0.3870321027291706,0.19982684467864698,0.3870461033124213,0.3724621540709873,0.11249167411174017,0.42368440770965315,0.3987063691357239,0.1766126926636321,0.40748008493407517,0.2927661181570829,0.44783991911008264,0.3899289078962564,0.31539172494431167,0.32397329724614077,0.2985745861696021,0.2903623281915526,0.32894088786548425,0.17303758079391965,0.37339884117524985,0.37179897462874356,0.27811350404522234,0.3656037255104288,0.4668560085285238,0.148552777725024,0.3969719255294466,0.36437362218985764,0.43098910879328817,0.20292169960157727,0.4135626931346807,0.307232225609565,0.34442637324999664,0.4371044210888325,0.29134019660971744,0.4700890658995358,0.17558950998352063,0.24884650438032763,0.3360520473604304,0.2721115649491266,0.3927813191941411,0.41816408467460275,0.4081717058326555,0.3956246694878751,0.35498562722057253,0.4660563069237628,0.37533850974777644,0.35317211665501985,0.3793943006847048,0.44273244246932403,0.28587637292958823,0.44078818338156317,0.24157840599796573,0.4122799591338892,0.4273443937157645,0.31182615238288675,0.14601359652421184,0.4087291903239134,0.153231423238999,0.33905058975866637,0.3477748683965322,0.436394295531736,0.42276656663902173,0.10354838735946473,0.308022070300242,0.3282811189628739,0.42227810676555916,0.3605876500550272,0.25250670767328887,0.341970743157875,0.16115239479609103,0.45267004977344494,0.3667241285665467,0.3926744706138281,0.2652712644925428,0.44435892505855884,0.34824687918117003,0.2740839970166395,0.5053343227977555,0.4092902907995839,0.3586456475293705,0.368473062115054,0.20593937473246426,0.3678215039102844,0.3443633068096475,0.3849243372033078,0.41636633993460404,0.4164367663960009,0.30652983013116836,0.20716782832681957,0.25320827165871856,0.2408055381719214,0.33571556841436656,0.18621886362315646,0.27597673093810277,0.4722493603320124,0.4354022834744249,0.37412652477729563,0.48287034536399803,0.3585620753245897,0.36581442528863223,0.3378541644555848,0.3916664712344232,0.22003858483989563,0.27832492481536475,0.2721426773996551,0.44995792577057847,0.2675307630480071,0.4004166010380788,0.4629317921295215,0.3884112267471989,0.34370818207784154,0.35818865221591095,0.38618604815292246,0.3772088882722195,0.2190762331245919,0.16084780248779262,0.4119067470013805,0.4025254663710029,0.27046229224884155,0.2776163184549815,0.43301482827561566,0.40937421659274437,0.43925717732787084,0.23810623025789632,0.35539033769752876,0.25484198897493127,0.42786915301567374,0.3705708824024585,0.3081059549620453,0.4139143556506727,0.23027342338584075,0.35270377526028146,0.3628970932876153,0.39159653535001365,0.4293495610790765,0.33127238932342096,0.321666746349646,0.3970775326321214,0.39508972631248784,0.25103132664430516,0.2938816634480247,0.49597021941304265,0.420895207346855,0.46217986515221754,0.252295871599142,0.22599122165877844,0.14439650665720444,0.26063507813317827,0.3443385346062636,0.2336338599263468,0.4426659192417073,0.3557936531184323,0.46429572689760684,0.3163209141542654,0.48811723625222786,0.21532050601781985,0.22439033092441785,0.3702625756828901,0.48335227009321563,0.2561559585152835,0.38236233626784516,0.2569574187704474,0.3442437517203871,0.4349479999842456,0.392410597991139,0.2591478673865007,0.36994767723447125,0.4703275362247641,0.383329101849428,0.25517591027011566,0.33095914187695735,0.18953731183015052,0.4348544097709216,0.3066511996886434,0.28007644389055547,0.3995878392803073,0.4479357617520865,0.2887713303133603,0.35698529908860105,0.32460071594361645,0.3699252009874053,0.36604236911589055,0.32223944924153974,0.28926213558287156,0.3818366794566366,0.32620367713014253,0.31496809713727403,0.3189717788792147,0.37134815982530917,0.3366468146578785,0.42182959896398964,0.1382149363763404,0.4305655242168088,0.24074872872402908,0.36297752347267837,0.4492031301603365,0.33383143778628926,0.4470299754763844,0.3972449264790101,0.3613642321593535,0.36086843708481314,0.20678780206195801,0.3881099552983531,0.30126362222529873,0.24478634717730519,0.4837233697296767,0.2513915057526822,0.41036746400688395,0.29995378978358506,0.23629914013240125,0.5085426407151299,0.36786221450130735,0.28455595544825296,0.44184397655446767,0.3374788422450959,0.4334819341720722,0.47770370237304766,0.3612561438016714,0.35820100593703275,0.2701503455302889,0.4291891474880311,0.33500584322497245,0.2893994288135024,0.40238482983672863,0.43139753879760667,0.3197211125757436,0.22037507870780532,0.4277745288296156,0.3295143725343722,0.290051510032019,0.38928837311244163,0.33028144000403864,0.37414224952961156,0.46240185570823,0.2450785446471098,0.3008954144473823,0.32968835530793067,0.25053758539859355,0.3218684962482054,0.3009312631032922,0.19720669549742706,0.20186081823293908,0.2523653502771951,0.3874618435640071,0.3495602413344196,0.33426015660951897,0.3511811267171569,0.43207747268980595,0.34377133299029866,0.16876299229325636,0.36137450305881064,0.31842886119411457,0.2776795350342905,0.37923579086874876,0.2175091797917517,0.40463971783636954,0.2528267517706516,0.2995900671217169,0.3573259783622743,0.4589721125963342,0.29540330021303696,0.31623833285435793,0.34995262555943946,0.21831489490872621,0.46606764182384025,0.3119913889018281,0.3940539000734275,0.33111422733930695,0.33153236678580195
